
# version 50001

data_TS_01

loop_ 
_rlnMicrographMovieName #1 
_rlnTomoTiltMovieFrameCount #2 
_rlnTomoNominalStageTiltAngle #3 
_rlnTomoNominalTiltAxisAngle #4 
_rlnMicrographPreExposure #5 
_rlnTomoNominalDefocus #6 
_rlnCtfPowerSpectrum #7 
_rlnMicrographNameEven #8 
_rlnMicrographNameOdd #9 
_rlnMicrographName #10 
_rlnMicrographMetadata #11 
_rlnAccumMotionTotal #12 
_rlnAccumMotionEarly #13 
_rlnAccumMotionLate #14 
_rlnCtfImage #15 
_rlnDefocusU #16 
_rlnDefocusV #17 
_rlnCtfAstigmatism #18 
_rlnDefocusAngle #19 
_rlnCtfFigureOfMerit #20 
_rlnCtfMaxResolution #21 
_rlnCtfIceRingDensity #22 
_rlnTomoXTilt #23 
_rlnTomoYTilt #24 
_rlnTomoZRot #25 
_rlnTomoXShiftAngst #26 
_rlnTomoYShiftAngst #27 
_rlnCtfScalefactor #28 
frames/TS_01_038_-57.0.mrc            8    -56.99850    85.000000   114.000000     -4.00000 MotionCorr/job002/frames/TS_01_038_-57_0_PS.mrc MotionCorr/job002/frames/TS_01_038_-57_0_EVN.mrc MotionCorr/job002/frames/TS_01_038_-57_0_ODD.mrc MotionCorr/job002/frames/TS_01_038_-57_0.mrc MotionCorr/job002/frames/TS_01_038_-57_0.star     6.867403     0.000000     6.867403 CtfFind/job003/frames/TS_01_038_-57_0_PS.ctf:mrc 39731.090652 39950.407395   109.371094   130.122831     0.098171    14.626481     0.624420     -0.04765    -57.16658    85.181785    37.328388   107.936141     0.401495 
frames/TS_01_035_-54.0.mrc            8    -53.99890    85.000000   105.000000     -4.00000 MotionCorr/job002/frames/TS_01_035_-54_0_PS.mrc MotionCorr/job002/frames/TS_01_035_-54_0_EVN.mrc MotionCorr/job002/frames/TS_01_035_-54_0_ODD.mrc MotionCorr/job002/frames/TS_01_035_-54_0.mrc MotionCorr/job002/frames/TS_01_035_-54_0.star     8.737374     0.000000     8.737374 CtfFind/job003/frames/TS_01_035_-54_0_PS.ctf:mrc 38953.130445 39258.358175   140.769531    98.230424     0.089442    14.931199     0.549690     -0.12212    -54.18512    85.249276    20.328165    90.994275     0.502057 
frames/TS_01_034_-51.0.mrc            8    -50.99880    85.000000   102.000000     -4.00000 MotionCorr/job002/frames/TS_01_034_-51_0_PS.mrc MotionCorr/job002/frames/TS_01_034_-51_0_EVN.mrc MotionCorr/job002/frames/TS_01_034_-51_0_ODD.mrc MotionCorr/job002/frames/TS_01_034_-51_0.mrc MotionCorr/job002/frames/TS_01_034_-51_0.star     9.400595     0.000000     9.400595 CtfFind/job003/frames/TS_01_034_-51_0_PS.ctf:mrc 39935.305368 40140.654986    40.027344   117.266857     0.126386    12.573642     0.511440     -0.15893    -51.18805    85.264595    30.040655   117.217130     0.471363 
frames/TS_01_031_-48.0.mrc            8    -47.99860    85.000000    93.000000     -4.00000 MotionCorr/job002/frames/TS_01_031_-48_0_PS.mrc MotionCorr/job002/frames/TS_01_031_-48_0_EVN.mrc MotionCorr/job002/frames/TS_01_031_-48_0_ODD.mrc MotionCorr/job002/frames/TS_01_031_-48_0.mrc MotionCorr/job002/frames/TS_01_031_-48_0.star     8.097709     0.000000     8.097709 CtfFind/job003/frames/TS_01_031_-48_0_PS.ctf:mrc 40324.374625 40758.419348   254.808594   119.218578     0.095329    11.559638     0.848440     -0.15470    -48.15954    85.257096    20.710819    95.338129     0.571857 
frames/TS_01_030_-45.0.mrc            8    -44.99900    85.000000    90.000000     -4.00000 MotionCorr/job002/frames/TS_01_030_-45_0_PS.mrc MotionCorr/job002/frames/TS_01_030_-45_0_EVN.mrc MotionCorr/job002/frames/TS_01_030_-45_0_ODD.mrc MotionCorr/job002/frames/TS_01_030_-45_0.mrc MotionCorr/job002/frames/TS_01_030_-45_0.star     7.706032     0.000000     7.706032 CtfFind/job003/frames/TS_01_030_-45_0_PS.ctf:mrc 39803.173397 40177.318132   242.738281    60.835748     0.064779    11.198400     0.478040     -0.11141    -45.16865    85.231522    27.150865   116.900917     0.559438 
frames/TS_01_027_-42.0.mrc            8    -41.99890    85.000000    81.000000     -4.00000 MotionCorr/job002/frames/TS_01_027_-42_0_PS.mrc MotionCorr/job002/frames/TS_01_027_-42_0_EVN.mrc MotionCorr/job002/frames/TS_01_027_-42_0_ODD.mrc MotionCorr/job002/frames/TS_01_027_-42_0.mrc MotionCorr/job002/frames/TS_01_027_-42_0.star     7.616364     0.000000     7.616364 CtfFind/job003/frames/TS_01_027_-42_0_PS.ctf:mrc 39814.394108 40266.766481   129.660156    93.035793     0.060071    11.198400     0.681970     -0.09255    -42.12746    85.237856    16.318135    92.621991     0.597061 
frames/TS_01_026_-39.0.mrc            8    -38.99870    85.000000    78.000000     -4.00000 MotionCorr/job002/frames/TS_01_026_-39_0_PS.mrc MotionCorr/job002/frames/TS_01_026_-39_0_EVN.mrc MotionCorr/job002/frames/TS_01_026_-39_0_ODD.mrc MotionCorr/job002/frames/TS_01_026_-39_0.mrc MotionCorr/job002/frames/TS_01_026_-39_0.star     6.881871     0.000000     6.881871 CtfFind/job003/frames/TS_01_026_-39_0_PS.ctf:mrc 39246.454337 40065.238307   408.003906   132.375684     0.058877     9.685102     0.421770     -0.08437    -39.13651    85.222851    21.537016   114.363064     0.615798 
frames/TS_01_023_-36.0.mrc            8    -35.99860    85.000000    69.000000     -4.00000 MotionCorr/job002/frames/TS_01_023_-36_0_PS.mrc MotionCorr/job002/frames/TS_01_023_-36_0_EVN.mrc MotionCorr/job002/frames/TS_01_023_-36_0_ODD.mrc MotionCorr/job002/frames/TS_01_023_-36_0.mrc MotionCorr/job002/frames/TS_01_023_-36_0.star     6.251948     0.000000     6.251948 CtfFind/job003/frames/TS_01_023_-36_0_PS.ctf:mrc 39540.161466 40057.457593   390.214844   106.278508     0.068964    10.094332     0.587930     -0.10069    -36.12523    85.222736    12.827489    87.789539     0.748026 
frames/TS_01_022_-33.0.mrc            8    -32.99900    85.000000    66.000000     -4.00000 MotionCorr/job002/frames/TS_01_022_-33_0_PS.mrc MotionCorr/job002/frames/TS_01_022_-33_0_EVN.mrc MotionCorr/job002/frames/TS_01_022_-33_0_ODD.mrc MotionCorr/job002/frames/TS_01_022_-33_0.mrc MotionCorr/job002/frames/TS_01_022_-33_0.star     5.508498     0.000000     5.508498 CtfFind/job003/frames/TS_01_022_-33_0_PS.ctf:mrc 39490.806424 39576.742455   131.757812   128.004586     0.068570     9.072121     1.470770     -0.11872    -33.10167    85.227574    17.119241   109.551094     0.826198 
frames/TS_01_019_-30.0.mrc            8    -29.99880    85.000000    57.000000     -4.00000 MotionCorr/job002/frames/TS_01_019_-30_0_PS.mrc MotionCorr/job002/frames/TS_01_019_-30_0_EVN.mrc MotionCorr/job002/frames/TS_01_019_-30_0_ODD.mrc MotionCorr/job002/frames/TS_01_019_-30_0.mrc MotionCorr/job002/frames/TS_01_019_-30_0.star     5.991338     0.000000     5.991338 CtfFind/job003/frames/TS_01_019_-30_0_PS.ctf:mrc 39467.880019 39832.655568   401.738281   141.380429     0.061857     9.188430     0.461620     -0.13847    -30.10614    85.226208     6.767026    80.815686     0.863249 
frames/TS_01_018_-27.0.mrc            8    -26.99920    85.000000    54.000000     -4.00000 MotionCorr/job002/frames/TS_01_018_-27_0_PS.mrc MotionCorr/job002/frames/TS_01_018_-27_0_EVN.mrc MotionCorr/job002/frames/TS_01_018_-27_0_ODD.mrc MotionCorr/job002/frames/TS_01_018_-27_0.mrc MotionCorr/job002/frames/TS_01_018_-27_0.star     3.764705     0.000000     3.764705 CtfFind/job003/frames/TS_01_018_-27_0_PS.ctf:mrc 39377.705238 39970.144567   461.804688   149.789828     0.043537     7.875797     0.967460     -0.11815    -27.08269    85.232534     9.418324   102.430712     0.902560 
frames/TS_01_015_-24.0.mrc            8    -23.99860    85.000000    45.000000     -4.00000 MotionCorr/job002/frames/TS_01_015_-24_0_PS.mrc MotionCorr/job002/frames/TS_01_015_-24_0_EVN.mrc MotionCorr/job002/frames/TS_01_015_-24_0_ODD.mrc MotionCorr/job002/frames/TS_01_015_-24_0.mrc MotionCorr/job002/frames/TS_01_015_-24_0.star     4.374630     0.000000     4.374630 CtfFind/job003/frames/TS_01_015_-24_0_PS.ctf:mrc 39380.153151 39915.381522   826.437500   156.917272     0.031468     9.072121     0.625670     -0.11538    -24.06363    85.222048     1.827189    72.587715     0.967289 
frames/TS_01_014_-21.0.mrc            8    -20.99890    85.000000    42.000000     -4.00000 MotionCorr/job002/frames/TS_01_014_-21_0_PS.mrc MotionCorr/job002/frames/TS_01_014_-21_0_EVN.mrc MotionCorr/job002/frames/TS_01_014_-21_0_ODD.mrc MotionCorr/job002/frames/TS_01_014_-21_0.mrc MotionCorr/job002/frames/TS_01_014_-21_0.star     3.208567     0.000000     3.208567 CtfFind/job003/frames/TS_01_014_-21_0_PS.ctf:mrc 39244.980797 39990.690311   438.785156   138.049017     0.059953     6.575207     0.532320     -0.07012    -21.05318    85.219911     8.797827   100.086275     1.001934 
frames/TS_01_011_-18.0.mrc            8    -17.99880    85.000000    33.000000     -4.00000 MotionCorr/job002/frames/TS_01_011_-18_0_PS.mrc MotionCorr/job002/frames/TS_01_011_-18_0_EVN.mrc MotionCorr/job002/frames/TS_01_011_-18_0_ODD.mrc MotionCorr/job002/frames/TS_01_011_-18_0.mrc MotionCorr/job002/frames/TS_01_011_-18_0.star     2.927541     0.000000     2.927541 CtfFind/job003/frames/TS_01_011_-18_0_PS.ctf:mrc 39310.112666 39959.958020   570.011719   141.686721     0.051604     8.052782     0.600150     -0.06950    -18.05461    85.217605     3.826719    70.092267     1.112873 
frames/TS_01_010_-15.0.mrc            8    -14.99870    85.000000    30.000000     -4.00000 MotionCorr/job002/frames/TS_01_010_-15_0_PS.mrc MotionCorr/job002/frames/TS_01_010_-15_0_EVN.mrc MotionCorr/job002/frames/TS_01_010_-15_0_ODD.mrc MotionCorr/job002/frames/TS_01_010_-15_0.mrc MotionCorr/job002/frames/TS_01_010_-15_0.star     3.144113     0.000000     3.144113 CtfFind/job003/frames/TS_01_010_-15_0_PS.ctf:mrc 39279.640542 39956.022368    58.691406   134.353465     0.057074     6.891323     1.495470     -0.07550    -15.03915    85.224291     7.499163    76.189572     1.106468 
frames/TS_01_007_-12.0.mrc            8    -11.99850    85.000000    21.000000     -4.00000 MotionCorr/job002/frames/TS_01_007_-12_0_PS.mrc MotionCorr/job002/frames/TS_01_007_-12_0_EVN.mrc MotionCorr/job002/frames/TS_01_007_-12_0_ODD.mrc MotionCorr/job002/frames/TS_01_007_-12_0.mrc MotionCorr/job002/frames/TS_01_007_-12_0.star     2.299021     0.000000     2.299021 CtfFind/job003/frames/TS_01_007_-12_0_PS.ctf:mrc 39350.718565 39799.607956   320.023438   141.949171     0.039666     7.544185     1.236110     -0.04582    -12.03109    85.224928     3.875076    71.157990     1.173454 
frames/TS_01_006_-9.0.mrc            8     -8.99890    85.000000    18.000000     -4.00000 MotionCorr/job002/frames/TS_01_006_-9_0_PS.mrc MotionCorr/job002/frames/TS_01_006_-9_0_EVN.mrc MotionCorr/job002/frames/TS_01_006_-9_0_ODD.mrc MotionCorr/job002/frames/TS_01_006_-9_0.mrc MotionCorr/job002/frames/TS_01_006_-9_0.star     2.231222     0.000000     2.231222 CtfFind/job003/frames/TS_01_006_-9_0_PS.ctf:mrc 39280.291342 39868.900495   974.921875   142.215985     0.041542     7.544185     1.137880     -0.04049     -9.01660    85.232021     6.407295    45.570887     1.221750 
frames/TS_01_003_-6.0.mrc            8     -5.99876    85.000000     9.000000     -4.00000 MotionCorr/job002/frames/TS_01_003_-6_0_PS.mrc MotionCorr/job002/frames/TS_01_003_-6_0_EVN.mrc MotionCorr/job002/frames/TS_01_003_-6_0_ODD.mrc MotionCorr/job002/frames/TS_01_003_-6_0.mrc MotionCorr/job002/frames/TS_01_003_-6_0.star     3.237798     0.000000     3.237798 CtfFind/job003/frames/TS_01_003_-6_0_PS.ctf:mrc 39203.514420 39799.637580   337.300781   139.823541     0.045582     7.096016     0.480650     -0.04175     -5.99169    85.239973     4.399240    46.943513     1.293168 
frames/TS_01_002_-3.0.mrc            8     -2.99863    85.000000     6.000000     -4.00000 MotionCorr/job002/frames/TS_01_002_-3_0_PS.mrc MotionCorr/job002/frames/TS_01_002_-3_0_EVN.mrc MotionCorr/job002/frames/TS_01_002_-3_0_ODD.mrc MotionCorr/job002/frames/TS_01_002_-3_0.mrc MotionCorr/job002/frames/TS_01_002_-3_0.star     2.008728     0.000000     2.008728 CtfFind/job003/frames/TS_01_002_-3_0_PS.ctf:mrc 39178.831393 39643.112936   250.898438   132.333828     0.043894     6.232153     1.195820     -0.03476     -2.97603    85.247366     -1.09519    15.835372     1.221688 
frames/TS_01_000_0.0.mrc            8     0.001000    85.000000     0.000000     -4.00000 MotionCorr/job002/frames/TS_01_000_0_0_PS.mrc MotionCorr/job002/frames/TS_01_000_0_0_EVN.mrc MotionCorr/job002/frames/TS_01_000_0_0_ODD.mrc MotionCorr/job002/frames/TS_01_000_0_0.mrc MotionCorr/job002/frames/TS_01_000_0_0.star     2.297631     1.007983     1.289649 CtfFind/job003/frames/TS_01_000_0_0_PS.ctf:mrc 39101.484354 39334.429960   105.000000   141.434638     0.035810     7.026447     0.605850     -0.01924     0.025631    85.256024     1.511205     -9.45215     1.132912 
frames/TS_01_001_3.0.mrc            8     3.001130    85.000000     3.000000     -4.00000 MotionCorr/job002/frames/TS_01_001_3_0_PS.mrc MotionCorr/job002/frames/TS_01_001_3_0_EVN.mrc MotionCorr/job002/frames/TS_01_001_3_0_ODD.mrc MotionCorr/job002/frames/TS_01_001_3_0.mrc MotionCorr/job002/frames/TS_01_001_3_0.star     2.384960     0.000000     2.384960 CtfFind/job003/frames/TS_01_001_3_0_PS.ctf:mrc 39288.888061 39639.999208    40.277344   137.329150     0.045554     6.575207     0.570030     0.001104     3.041723    85.264619     -3.85638    -42.75791     1.258128 
frames/TS_01_004_6.0.mrc            8     6.001260    85.000000    12.000000     -4.00000 MotionCorr/job002/frames/TS_01_004_6_0_PS.mrc MotionCorr/job002/frames/TS_01_004_6_0_EVN.mrc MotionCorr/job002/frames/TS_01_004_6_0_ODD.mrc MotionCorr/job002/frames/TS_01_004_6_0.mrc MotionCorr/job002/frames/TS_01_004_6_0.star     2.323928     0.000000     2.323928 CtfFind/job003/frames/TS_01_004_6_0_PS.ctf:mrc 39306.124293 39722.296886   211.851562   138.384633     0.050940     6.958229     0.600390     -0.00606     6.079158    85.263632     -7.55579    -66.18333     1.283670 
frames/TS_01_005_9.0.mrc            8     9.001400    85.000000    15.000000     -4.00000 MotionCorr/job002/frames/TS_01_005_9_0_PS.mrc MotionCorr/job002/frames/TS_01_005_9_0_EVN.mrc MotionCorr/job002/frames/TS_01_005_9_0_ODD.mrc MotionCorr/job002/frames/TS_01_005_9_0.mrc MotionCorr/job002/frames/TS_01_005_9_0.star     2.180758     0.000000     2.180758 CtfFind/job003/frames/TS_01_005_9_0_PS.ctf:mrc 39193.880024 39707.335570   895.097656   143.625638     0.047935     6.232153     0.796060     0.012987     9.078396    85.276018     -8.33838    -59.35901     1.265850 
frames/TS_01_008_12.0.mrc            8    12.000500    85.000000    24.000000     -4.00000 MotionCorr/job002/frames/TS_01_008_12_0_PS.mrc MotionCorr/job002/frames/TS_01_008_12_0_EVN.mrc MotionCorr/job002/frames/TS_01_008_12_0_ODD.mrc MotionCorr/job002/frames/TS_01_008_12_0.mrc MotionCorr/job002/frames/TS_01_008_12_0.star     2.105090     0.000000     2.105090 CtfFind/job003/frames/TS_01_008_12_0_PS.ctf:mrc 39162.537766 39712.921009   249.871094   142.365366     0.068617     6.761298     0.636830     0.016703    12.068841    85.276431     -9.64813    -87.02065     1.154043 
frames/TS_01_009_15.0.mrc            8    15.000700    85.000000    27.000000     -4.00000 MotionCorr/job002/frames/TS_01_009_15_0_PS.mrc MotionCorr/job002/frames/TS_01_009_15_0_EVN.mrc MotionCorr/job002/frames/TS_01_009_15_0_ODD.mrc MotionCorr/job002/frames/TS_01_009_15_0.mrc MotionCorr/job002/frames/TS_01_009_15_0.star     2.645439     0.000000     2.645439 CtfFind/job003/frames/TS_01_009_15_0_PS.ctf:mrc 39127.655492 39695.558869   246.207031   150.437962     0.060885     6.636089     1.134630     0.005197    15.081064    85.279567    -12.58537    -73.61919     1.168424 
frames/TS_01_012_18.0.mrc            8    18.000800    85.000000    36.000000     -4.00000 MotionCorr/job002/frames/TS_01_012_18_0_PS.mrc MotionCorr/job002/frames/TS_01_012_18_0_EVN.mrc MotionCorr/job002/frames/TS_01_012_18_0_ODD.mrc MotionCorr/job002/frames/TS_01_012_18_0.mrc MotionCorr/job002/frames/TS_01_012_18_0.star     3.365260     0.000000     3.365260 CtfFind/job003/frames/TS_01_012_18_0_PS.ctf:mrc 39306.375754 39645.089942   126.351562   140.451835     0.056260     8.144291     0.656890     0.041067    18.067737    85.301832    -16.25295   -105.31676     1.083479 
frames/TS_01_013_21.0.mrc            8    21.000900    85.000000    39.000000     -4.00000 MotionCorr/job002/frames/TS_01_013_21_0_PS.mrc MotionCorr/job002/frames/TS_01_013_21_0_EVN.mrc MotionCorr/job002/frames/TS_01_013_21_0_ODD.mrc MotionCorr/job002/frames/TS_01_013_21_0.mrc MotionCorr/job002/frames/TS_01_013_21_0.star     3.806968     0.000000     3.806968 CtfFind/job003/frames/TS_01_013_21_0_PS.ctf:mrc 39279.407950 39926.661410   205.695312   128.706044     0.045835     7.313241     0.594060     0.052067    21.059790    85.309991    -16.90898   -103.88557     1.064003 
frames/TS_01_016_24.0.mrc            8    24.000600    85.000000    48.000000     -4.00000 MotionCorr/job002/frames/TS_01_016_24_0_PS.mrc MotionCorr/job002/frames/TS_01_016_24_0_EVN.mrc MotionCorr/job002/frames/TS_01_016_24_0_ODD.mrc MotionCorr/job002/frames/TS_01_016_24_0.mrc MotionCorr/job002/frames/TS_01_016_24_0.star     3.305467     0.000000     3.305467 CtfFind/job003/frames/TS_01_016_24_0_PS.ctf:mrc 39186.426936 39944.199539   309.660156   162.960468     0.074357     8.052782     1.427420     0.050494    24.074943    85.325304    -19.42907   -124.08089     0.991695 
frames/TS_01_017_27.0.mrc            8    27.000700    85.000000    51.000000     -4.00000 MotionCorr/job002/frames/TS_01_017_27_0_PS.mrc MotionCorr/job002/frames/TS_01_017_27_0_EVN.mrc MotionCorr/job002/frames/TS_01_017_27_0_ODD.mrc MotionCorr/job002/frames/TS_01_017_27_0.mrc MotionCorr/job002/frames/TS_01_017_27_0.star     4.514617     0.000000     4.514617 CtfFind/job003/frames/TS_01_017_27_0_PS.ctf:mrc 39194.815206 39581.355202   128.867188   155.674223     0.057817     8.958720     1.250290     0.075295    27.074345    85.342375    -16.80396   -129.21290     0.939161 
frames/TS_01_020_30.0.mrc            8    30.000800    85.000000    60.000000     -4.00000 MotionCorr/job002/frames/TS_01_020_30_0_PS.mrc MotionCorr/job002/frames/TS_01_020_30_0_EVN.mrc MotionCorr/job002/frames/TS_01_020_30_0_ODD.mrc MotionCorr/job002/frames/TS_01_020_30_0.mrc MotionCorr/job002/frames/TS_01_020_30_0.star     4.122379     0.000000     4.122379 CtfFind/job003/frames/TS_01_020_30_0_PS.ctf:mrc 39491.294830 39550.082494   696.796875   -169.05994     0.053755     9.430231     0.488000     0.124527    30.086949    85.374848    -27.35188   -140.78774     0.848228 
frames/TS_01_021_33.0.mrc            8    33.001000    85.000000    63.000000     -4.00000 MotionCorr/job002/frames/TS_01_021_33_0_PS.mrc MotionCorr/job002/frames/TS_01_021_33_0_EVN.mrc MotionCorr/job002/frames/TS_01_021_33_0_ODD.mrc MotionCorr/job002/frames/TS_01_021_33_0.mrc MotionCorr/job002/frames/TS_01_021_33_0.star     4.487542     0.000000     4.487542 CtfFind/job003/frames/TS_01_021_33_0_PS.ctf:mrc 39535.679731 39899.351081   152.042969   130.889720     0.081110     8.848118     0.590140     0.109418    33.074851    85.373586    -21.02041   -128.58955     0.820635 
frames/TS_01_024_36.0.mrc            8    36.000600    85.000000    72.000000     -4.00000 MotionCorr/job002/frames/TS_01_024_36_0_PS.mrc MotionCorr/job002/frames/TS_01_024_36_0_EVN.mrc MotionCorr/job002/frames/TS_01_024_36_0_ODD.mrc MotionCorr/job002/frames/TS_01_024_36_0.mrc MotionCorr/job002/frames/TS_01_024_36_0.star     4.487724     0.000000     4.487724 CtfFind/job003/frames/TS_01_024_36_0_PS.ctf:mrc 38980.734147 39592.325798   435.519531    96.297820     0.072468    10.539670     0.864610     0.120283    36.013355    85.389475    -23.68493   -151.81928     0.758597 
frames/TS_01_025_39.0.mrc            8    39.000700    85.000000    75.000000     -4.00000 MotionCorr/job002/frames/TS_01_025_39_0_PS.mrc MotionCorr/job002/frames/TS_01_025_39_0_EVN.mrc MotionCorr/job002/frames/TS_01_025_39_0_ODD.mrc MotionCorr/job002/frames/TS_01_025_39_0.mrc MotionCorr/job002/frames/TS_01_025_39_0.star     5.025156     0.000000     5.025156 CtfFind/job003/frames/TS_01_025_39_0_PS.ctf:mrc 38799.967814 40173.865317   507.058594   119.947958     0.083311     9.954133     0.650820     0.128630    39.026916    85.405812    -10.25109   -137.05145     0.661204 
frames/TS_01_028_42.0.mrc            8    42.000900    85.000000    84.000000     -4.00000 MotionCorr/job002/frames/TS_01_028_42_0_PS.mrc MotionCorr/job002/frames/TS_01_028_42_0_EVN.mrc MotionCorr/job002/frames/TS_01_028_42_0_ODD.mrc MotionCorr/job002/frames/TS_01_028_42_0.mrc MotionCorr/job002/frames/TS_01_028_42_0.star     4.218339     0.000000     4.218339 CtfFind/job003/frames/TS_01_028_42_0_PS.ctf:mrc 39102.000720 39499.734896   295.824219   115.455617     0.102306    10.386921     0.533730     0.192924    42.023666    85.467454    -27.66482   -163.49652     0.667629 
frames/TS_01_029_45.0.mrc            8    45.001000    85.000000    87.000000     -4.00000 MotionCorr/job002/frames/TS_01_029_45_0_PS.mrc MotionCorr/job002/frames/TS_01_029_45_0_EVN.mrc MotionCorr/job002/frames/TS_01_029_45_0_ODD.mrc MotionCorr/job002/frames/TS_01_029_45_0.mrc MotionCorr/job002/frames/TS_01_029_45_0.star     5.827766     0.000000     5.827766 CtfFind/job003/frames/TS_01_029_45_0_PS.ctf:mrc 38475.252595 39220.831175   193.757812   159.660369     0.083501    10.238537     0.576610     0.182441    45.012600    85.453623    -12.28114   -145.04846     0.628250 
frames/TS_01_032_48.0.mrc            8    48.000600    85.000000    96.000000     -4.00000 MotionCorr/job002/frames/TS_01_032_48_0_PS.mrc MotionCorr/job002/frames/TS_01_032_48_0_EVN.mrc MotionCorr/job002/frames/TS_01_032_48_0_ODD.mrc MotionCorr/job002/frames/TS_01_032_48_0.mrc MotionCorr/job002/frames/TS_01_032_48_0.star     5.189981     0.000000     5.189981 CtfFind/job003/frames/TS_01_032_48_0_PS.ctf:mrc 38560.817496 39026.040489   264.953125   143.905636     0.103284    11.749141     1.007310     0.264160    47.990650    85.521133    -29.45221   -168.95694     0.616115 
frames/TS_01_033_51.0.mrc            8    51.000800    85.000000    99.000000     -4.00000 MotionCorr/job002/frames/TS_01_033_51_0_PS.mrc MotionCorr/job002/frames/TS_01_033_51_0_EVN.mrc MotionCorr/job002/frames/TS_01_033_51_0_ODD.mrc MotionCorr/job002/frames/TS_01_033_51_0.mrc MotionCorr/job002/frames/TS_01_033_51_0.star     6.903079     0.000000     6.903079 CtfFind/job003/frames/TS_01_033_51_0_PS.ctf:mrc 39142.839651 39697.452388   121.355469   119.393353     0.074141    12.356855     0.623900     0.203639    51.021044    85.506714    -11.62764   -142.12152     0.585987 
frames/TS_01_036_54.0.mrc            8    54.000900    85.000000   108.000000     -4.00000 MotionCorr/job002/frames/TS_01_036_54_0_PS.mrc MotionCorr/job002/frames/TS_01_036_54_0_EVN.mrc MotionCorr/job002/frames/TS_01_036_54_0_ODD.mrc MotionCorr/job002/frames/TS_01_036_54_0.mrc MotionCorr/job002/frames/TS_01_036_54_0.star     4.851630     0.000000     4.851630 CtfFind/job003/frames/TS_01_036_54_0_PS.ctf:mrc 39163.788343 39304.366474   162.777344    92.095551     0.105213    13.782646     0.538310     0.277768    54.003276    85.547958    -32.12543   -161.44474     0.512408 
frames/TS_01_037_57.0.mrc            8    57.000000    85.000000   111.000000     -4.00000 MotionCorr/job002/frames/TS_01_037_57_0_PS.mrc MotionCorr/job002/frames/TS_01_037_57_0_EVN.mrc MotionCorr/job002/frames/TS_01_037_57_0_ODD.mrc MotionCorr/job002/frames/TS_01_037_57_0.mrc MotionCorr/job002/frames/TS_01_037_57_0.star     5.856454     0.000000     5.856454 CtfFind/job003/frames/TS_01_037_57_0_PS.ctf:mrc 37870.380865 38116.373995     2.816406   106.463290     0.115731    14.626481     0.839010     0.290235    57.031204    85.559095    -13.67365   -136.60149     0.432282 
frames/TS_01_040_60.0.mrc            8    60.000600    85.000000   120.000000     -4.00000 MotionCorr/job002/frames/TS_01_040_60_0_PS.mrc MotionCorr/job002/frames/TS_01_040_60_0_EVN.mrc MotionCorr/job002/frames/TS_01_040_60_0_ODD.mrc MotionCorr/job002/frames/TS_01_040_60_0.mrc MotionCorr/job002/frames/TS_01_040_60_0.star     6.036839     0.000000     6.036839 CtfFind/job003/frames/TS_01_040_60_0_PS.ctf:mrc 38764.060422 39112.743659    95.328125   118.386008     0.159484    14.333951     1.524560     0.257763    60.030578    85.612608    -30.32405   -157.01530     0.378799 
 
