
# version 50001

data_TS_45

loop_ 
_rlnMicrographMovieName #1 
_rlnTomoTiltMovieFrameCount #2 
_rlnTomoNominalStageTiltAngle #3 
_rlnTomoNominalTiltAxisAngle #4 
_rlnMicrographPreExposure #5 
_rlnTomoNominalDefocus #6 
_rlnCtfPowerSpectrum #7 
_rlnMicrographNameEven #8 
_rlnMicrographNameOdd #9 
_rlnMicrographName #10 
_rlnMicrographMetadata #11 
_rlnAccumMotionTotal #12 
_rlnAccumMotionEarly #13 
_rlnAccumMotionLate #14 
_rlnCtfImage #15 
_rlnDefocusU #16 
_rlnDefocusV #17 
_rlnCtfAstigmatism #18 
_rlnDefocusAngle #19 
_rlnCtfFigureOfMerit #20 
_rlnCtfMaxResolution #21 
_rlnCtfIceRingDensity #22 
_rlnTomoXTilt #23 
_rlnTomoYTilt #24 
_rlnTomoZRot #25 
_rlnTomoXShiftAngst #26 
_rlnTomoYShiftAngst #27 
_rlnCtfScalefactor #28 
frames/TS_45_039_-60.0.mrc           10    -59.99910    85.000000   117.000000     -3.00000 MotionCorr/job002/frames/TS_45_039_-60_0_PS.mrc MotionCorr/job002/frames/TS_45_039_-60_0_EVN.mrc MotionCorr/job002/frames/TS_45_039_-60_0_ODD.mrc MotionCorr/job002/frames/TS_45_039_-60_0.mrc MotionCorr/job002/frames/TS_45_039_-60_0.star     8.592580     0.000000     8.592580 CtfFind/job003/frames/TS_45_039_-60_0_PS.ctf:mrc 30187.783956 30422.053173    56.453125   141.275134     0.139703    14.931199     0.689400     0.092002    -60.02451    84.971507    11.737977   163.804735     0.514286 
frames/TS_45_038_-57.0.mrc           10    -56.99900    85.000000   114.000000     -3.00000 MotionCorr/job002/frames/TS_45_038_-57_0_PS.mrc MotionCorr/job002/frames/TS_45_038_-57_0_EVN.mrc MotionCorr/job002/frames/TS_45_038_-57_0_ODD.mrc MotionCorr/job002/frames/TS_45_038_-57_0.mrc MotionCorr/job002/frames/TS_45_038_-57_0.star     7.885448     0.000000     7.885448 CtfFind/job003/frames/TS_45_038_-57_0_PS.ctf:mrc 30338.536057 30713.485614    12.480469   163.167232     0.153567    16.288582     0.521070     0.062047    -57.06512    85.031691    25.701319   154.950214     0.556085 
frames/TS_45_035_-54.0.mrc           10    -53.99990    85.000000   105.000000     -3.00000 MotionCorr/job002/frames/TS_45_035_-54_0_PS.mrc MotionCorr/job002/frames/TS_45_035_-54_0_EVN.mrc MotionCorr/job002/frames/TS_45_035_-54_0_ODD.mrc MotionCorr/job002/frames/TS_45_035_-54_0.mrc MotionCorr/job002/frames/TS_45_035_-54_0.star     6.229998     0.000000     6.229998 CtfFind/job003/frames/TS_45_035_-54_0_PS.ctf:mrc 31039.713870 31260.253746    76.355469   172.705488     0.112120    11.749141     0.622660     0.057307    -54.05559    85.027456    21.340367   151.194463     0.595596 
frames/TS_45_034_-51.0.mrc           10    -50.99930    85.000000   102.000000     -3.00000 MotionCorr/job002/frames/TS_45_034_-51_0_PS.mrc MotionCorr/job002/frames/TS_45_034_-51_0_EVN.mrc MotionCorr/job002/frames/TS_45_034_-51_0_ODD.mrc MotionCorr/job002/frames/TS_45_034_-51_0.mrc MotionCorr/job002/frames/TS_45_034_-51_0.star     6.296544     0.000000     6.296544 CtfFind/job003/frames/TS_45_034_-51_0_PS.ctf:mrc 31113.161336 31574.788227   129.976562   150.328584     0.121843     9.685102     0.793180     0.007028    -51.07138    85.067736    41.534241   151.886603     0.639116 
frames/TS_45_031_-48.0.mrc           10    -47.99960    85.000000    93.000000     -3.00000 MotionCorr/job002/frames/TS_45_031_-48_0_PS.mrc MotionCorr/job002/frames/TS_45_031_-48_0_EVN.mrc MotionCorr/job002/frames/TS_45_031_-48_0_ODD.mrc MotionCorr/job002/frames/TS_45_031_-48_0.mrc MotionCorr/job002/frames/TS_45_031_-48_0.star     5.234620     0.000000     5.234620 CtfFind/job003/frames/TS_45_031_-48_0_PS.ctf:mrc 31143.802747 32135.999734   119.203125   144.737792     0.097664     9.954133     0.549880     0.003530    -48.07101    85.074296    22.739893   139.464416     0.742263 
frames/TS_45_030_-45.0.mrc           10    -45.00000    85.000000    90.000000     -3.00000 MotionCorr/job002/frames/TS_45_030_-45_0_PS.mrc MotionCorr/job002/frames/TS_45_030_-45_0_EVN.mrc MotionCorr/job002/frames/TS_45_030_-45_0_ODD.mrc MotionCorr/job002/frames/TS_45_030_-45_0.mrc MotionCorr/job002/frames/TS_45_030_-45_0.star     5.459822     0.000000     5.459822 CtfFind/job003/frames/TS_45_030_-45_0_PS.ctf:mrc 30481.750713 30808.179780   261.048828   136.616088     0.092576    10.238537     0.809930     -0.03598    -45.07494    85.085877    34.669569   134.353236     0.739469 
frames/TS_45_027_-42.0.mrc           10    -41.99990    85.000000    81.000000     -3.00000 MotionCorr/job002/frames/TS_45_027_-42_0_PS.mrc MotionCorr/job002/frames/TS_45_027_-42_0_EVN.mrc MotionCorr/job002/frames/TS_45_027_-42_0_ODD.mrc MotionCorr/job002/frames/TS_45_027_-42_0.mrc MotionCorr/job002/frames/TS_45_027_-42_0.star     4.854730     0.000000     4.854730 CtfFind/job003/frames/TS_45_027_-42_0_PS.ctf:mrc 30579.309913 30919.846993   459.546875   129.663117     0.093988     9.685102     0.443340     0.005143    -42.06828    85.077493    19.760798   133.263591     0.800335 
frames/TS_45_026_-39.0.mrc           10    -38.99970    85.000000    78.000000     -3.00000 MotionCorr/job002/frames/TS_45_026_-39_0_PS.mrc MotionCorr/job002/frames/TS_45_026_-39_0_EVN.mrc MotionCorr/job002/frames/TS_45_026_-39_0_ODD.mrc MotionCorr/job002/frames/TS_45_026_-39_0.mrc MotionCorr/job002/frames/TS_45_026_-39_0.star     5.409872     0.000000     5.409872 CtfFind/job003/frames/TS_45_026_-39_0_PS.ctf:mrc 30089.392591 30964.438010   120.957031   148.823706     0.087948     9.954133     0.472020     0.003213    -39.07402    85.088839    23.807302   124.565594     0.809061 
frames/TS_45_023_-36.0.mrc           10    -35.99960    85.000000    69.000000     -3.00000 MotionCorr/job002/frames/TS_45_023_-36_0_PS.mrc MotionCorr/job002/frames/TS_45_023_-36_0_EVN.mrc MotionCorr/job002/frames/TS_45_023_-36_0_ODD.mrc MotionCorr/job002/frames/TS_45_023_-36_0.mrc MotionCorr/job002/frames/TS_45_023_-36_0.star     4.774667     0.000000     4.774667 CtfFind/job003/frames/TS_45_023_-36_0_PS.ctf:mrc 30045.375552 30993.727219   257.210938   138.992197     0.089998     8.431736     0.687840     0.008450    -36.03608    85.079428    12.560660   124.974930     0.868904 
frames/TS_45_022_-33.0.mrc           10    -32.99950    85.000000    66.000000     -3.00000 MotionCorr/job002/frames/TS_45_022_-33_0_PS.mrc MotionCorr/job002/frames/TS_45_022_-33_0_EVN.mrc MotionCorr/job002/frames/TS_45_022_-33_0_ODD.mrc MotionCorr/job002/frames/TS_45_022_-33_0.mrc MotionCorr/job002/frames/TS_45_022_-33_0.star     5.137040     0.000000     5.137040 CtfFind/job003/frames/TS_45_022_-33_0_PS.ctf:mrc 30445.077285 30748.066267   276.111328   127.411460     0.089506     9.685102     0.575870     0.018108    -33.04808    85.083414    11.391731   116.632262     1.020336 
frames/TS_45_019_-30.0.mrc           10    -29.99980    85.000000    57.000000     -3.00000 MotionCorr/job002/frames/TS_45_019_-30_0_PS.mrc MotionCorr/job002/frames/TS_45_019_-30_0_EVN.mrc MotionCorr/job002/frames/TS_45_019_-30_0_ODD.mrc MotionCorr/job002/frames/TS_45_019_-30_0.mrc MotionCorr/job002/frames/TS_45_019_-30_0.star     4.675718     0.000000     4.675718 CtfFind/job003/frames/TS_45_019_-30_0_PS.ctf:mrc 29962.190084 30987.511070   489.705078   163.208641     0.064687     7.963306     0.592660     -0.00123    -30.01930    85.091545     3.027763   119.314583     1.032849 
frames/TS_45_018_-27.0.mrc           10    -27.00020    85.000000    54.000000     -3.00000 MotionCorr/job002/frames/TS_45_018_-27_0_PS.mrc MotionCorr/job002/frames/TS_45_018_-27_0_EVN.mrc MotionCorr/job002/frames/TS_45_018_-27_0_ODD.mrc MotionCorr/job002/frames/TS_45_018_-27_0.mrc MotionCorr/job002/frames/TS_45_018_-27_0.star     4.807011     0.000000     4.807011 CtfFind/job003/frames/TS_45_018_-27_0_PS.ctf:mrc 30179.418440 30657.418203   195.957031   120.730571     0.075174     8.431736     0.363980     0.029845    -27.03082    85.090476     -2.19706   106.081646     1.126252 
frames/TS_45_015_-24.0.mrc           10    -24.00010    85.000000    45.000000     -3.00000 MotionCorr/job002/frames/TS_45_015_-24_0_PS.mrc MotionCorr/job002/frames/TS_45_015_-24_0_EVN.mrc MotionCorr/job002/frames/TS_45_015_-24_0_ODD.mrc MotionCorr/job002/frames/TS_45_015_-24_0.mrc MotionCorr/job002/frames/TS_45_015_-24_0.star     3.667000     0.000000     3.667000 CtfFind/job003/frames/TS_45_015_-24_0_PS.ctf:mrc 30188.630580 30817.844769   303.271484   146.932879     0.057985     8.237903     0.658290     0.030497    -24.01071    85.108567     -0.38864   118.522744     1.175834 
frames/TS_45_014_-21.0.mrc           10    -20.99990    85.000000    42.000000     -3.00000 MotionCorr/job002/frames/TS_45_014_-21_0_PS.mrc MotionCorr/job002/frames/TS_45_014_-21_0_EVN.mrc MotionCorr/job002/frames/TS_45_014_-21_0_ODD.mrc MotionCorr/job002/frames/TS_45_014_-21_0.mrc MotionCorr/job002/frames/TS_45_014_-21_0.star     3.955090     0.000000     3.955090 CtfFind/job003/frames/TS_45_014_-21_0_PS.ctf:mrc 30310.601287 30583.681376   208.822266   131.633257     0.083637     7.166976     0.532380     0.031002    -21.02087    85.115662     -4.47599   100.209566     1.297074 
frames/TS_45_011_-18.0.mrc           10    -18.00180    85.000000    33.000000     -3.00000 MotionCorr/job002/frames/TS_45_011_-18_0_PS.mrc MotionCorr/job002/frames/TS_45_011_-18_0_EVN.mrc MotionCorr/job002/frames/TS_45_011_-18_0_ODD.mrc MotionCorr/job002/frames/TS_45_011_-18_0.mrc MotionCorr/job002/frames/TS_45_011_-18_0.star     3.986319     0.000000     3.986319 CtfFind/job003/frames/TS_45_011_-18_0_PS.ctf:mrc 30256.507953 30650.461198   107.960938   127.061567     0.068736     6.636089     0.897040     0.053142    -18.00602    85.116192     0.733405   111.443646     1.316621 
frames/TS_45_010_-15.0.mrc           10    -15.00370    85.000000    30.000000     -3.00000 MotionCorr/job002/frames/TS_45_010_-15_0_PS.mrc MotionCorr/job002/frames/TS_45_010_-15_0_EVN.mrc MotionCorr/job002/frames/TS_45_010_-15_0_ODD.mrc MotionCorr/job002/frames/TS_45_010_-15_0.mrc MotionCorr/job002/frames/TS_45_010_-15_0.star     3.307242     0.000000     3.307242 CtfFind/job003/frames/TS_45_010_-15_0_PS.ctf:mrc 30215.024628 30635.711094   260.017578   133.021638     0.081297     6.399085     0.697650     0.050383    -15.03008    85.122895     -0.87865    89.788873     1.417004 
frames/TS_45_007_-12.0.mrc           10    -11.99900    85.000000    21.000000     -3.00000 MotionCorr/job002/frames/TS_45_007_-12_0_PS.mrc MotionCorr/job002/frames/TS_45_007_-12_0_EVN.mrc MotionCorr/job002/frames/TS_45_007_-12_0_ODD.mrc MotionCorr/job002/frames/TS_45_007_-12_0.mrc MotionCorr/job002/frames/TS_45_007_-12_0.star     3.492253     0.000000     3.492253 CtfFind/job003/frames/TS_45_007_-12_0_PS.ctf:mrc 30275.161369 30569.784988   316.609375   132.815618     0.065772     6.286821     0.427230     0.044375    -12.01628    85.129831     3.520997   102.928233     1.477852 
frames/TS_45_006_-9.0.mrc           10     -8.99940    85.000000    18.000000     -3.00000 MotionCorr/job002/frames/TS_45_006_-9_0_PS.mrc MotionCorr/job002/frames/TS_45_006_-9_0_EVN.mrc MotionCorr/job002/frames/TS_45_006_-9_0_ODD.mrc MotionCorr/job002/frames/TS_45_006_-9_0.mrc MotionCorr/job002/frames/TS_45_006_-9_0.star     3.925788     0.000000     3.925788 CtfFind/job003/frames/TS_45_006_-9_0_PS.ctf:mrc 30217.055496 30594.391479    82.421875   125.252409     0.063995     5.643288     0.608890     0.023044     -9.01097    85.136414     0.642418    74.725202     1.413695 
frames/TS_45_003_-6.0.mrc           10     -6.00027    85.000000     9.000000     -3.00000 MotionCorr/job002/frames/TS_45_003_-6_0_PS.mrc MotionCorr/job002/frames/TS_45_003_-6_0_EVN.mrc MotionCorr/job002/frames/TS_45_003_-6_0_ODD.mrc MotionCorr/job002/frames/TS_45_003_-6_0.mrc MotionCorr/job002/frames/TS_45_003_-6_0.star     3.170520     0.000000     3.170520 CtfFind/job003/frames/TS_45_003_-6_0_PS.ctf:mrc 30260.123254 30624.717456   430.880859   130.046867     0.067746     5.513058     0.559750     0.024544     -6.00944    85.144370     1.697590    90.460322     1.477115 
frames/TS_45_002_-3.0.mrc           10     -3.00013    85.000000     6.000000     -3.00000 MotionCorr/job002/frames/TS_45_002_-3_0_PS.mrc MotionCorr/job002/frames/TS_45_002_-3_0_EVN.mrc MotionCorr/job002/frames/TS_45_002_-3_0_ODD.mrc MotionCorr/job002/frames/TS_45_002_-3_0.mrc MotionCorr/job002/frames/TS_45_002_-3_0.star     3.314824     0.000000     3.314824 CtfFind/job003/frames/TS_45_002_-3_0_PS.ctf:mrc 30200.905152 30616.037211   365.074219   131.059758     0.069776     6.399085     1.089520     0.033164     -2.98125    85.146636     2.837388    58.303142     1.490166 
frames/TS_45_000_-0.0.mrc           10     -0.00150    85.000000     0.000000     -3.00000 MotionCorr/job002/frames/TS_45_000_-0_0_PS.mrc MotionCorr/job002/frames/TS_45_000_-0_0_EVN.mrc MotionCorr/job002/frames/TS_45_000_-0_0_ODD.mrc MotionCorr/job002/frames/TS_45_000_-0_0.mrc MotionCorr/job002/frames/TS_45_000_-0_0.star     3.233639     1.442666     1.790974 CtfFind/job003/frames/TS_45_000_-0_0_PS.ctf:mrc 30125.424638 30681.990618   786.271484   135.200240     0.052775     6.456735     0.806020     0.034310     0.055579    85.150811     -5.65422     6.556592     1.403942 
frames/TS_45_001_3.0.mrc           10     2.999630    85.000000     3.000000     -3.00000 MotionCorr/job002/frames/TS_45_001_3_0_PS.mrc MotionCorr/job002/frames/TS_45_001_3_0_EVN.mrc MotionCorr/job002/frames/TS_45_001_3_0_ODD.mrc MotionCorr/job002/frames/TS_45_001_3_0.mrc MotionCorr/job002/frames/TS_45_001_3_0.star     3.240772     0.000000     3.240772 CtfFind/job003/frames/TS_45_001_3_0_PS.ctf:mrc 30200.788881 30643.756527   637.558594   136.205818     0.058736     5.733581     0.933930     0.032999     3.038070    85.157833     -4.42050    -46.70861     1.396793 
frames/TS_45_004_6.0.mrc           10     5.997770    85.000000    12.000000     -3.00000 MotionCorr/job002/frames/TS_45_004_6_0_PS.mrc MotionCorr/job002/frames/TS_45_004_6_0_EVN.mrc MotionCorr/job002/frames/TS_45_004_6_0_ODD.mrc MotionCorr/job002/frames/TS_45_004_6_0.mrc MotionCorr/job002/frames/TS_45_004_6_0.star     3.592058     0.000000     3.592058 CtfFind/job003/frames/TS_45_004_6_0_PS.ctf:mrc 30206.546158 30581.131924   532.402344   126.942670     0.076072     5.688076     0.565610     0.033481     6.030863    85.163071     -7.43659    -67.51920     1.523510 
frames/TS_45_005_9.0.mrc           10     8.996400    85.000000    15.000000     -3.00000 MotionCorr/job002/frames/TS_45_005_9_0_PS.mrc MotionCorr/job002/frames/TS_45_005_9_0_EVN.mrc MotionCorr/job002/frames/TS_45_005_9_0_ODD.mrc MotionCorr/job002/frames/TS_45_005_9_0.mrc MotionCorr/job002/frames/TS_45_005_9_0.star     2.902536     0.000000     2.902536 CtfFind/job003/frames/TS_45_005_9_0_PS.ctf:mrc 30226.434490 30579.119556   254.123047   127.016059     0.066596     6.178427     0.502750     0.031306     9.030680    85.169017     -9.12319    -69.16688     1.457967 
frames/TS_45_008_12.0.mrc           10    11.998500    85.000000    24.000000     -3.00000 MotionCorr/job002/frames/TS_45_008_12_0_PS.mrc MotionCorr/job002/frames/TS_45_008_12_0_EVN.mrc MotionCorr/job002/frames/TS_45_008_12_0_ODD.mrc MotionCorr/job002/frames/TS_45_008_12_0.mrc MotionCorr/job002/frames/TS_45_008_12_0.star     2.172041     0.000000     2.172041 CtfFind/job003/frames/TS_45_008_12_0_PS.ctf:mrc 30244.835523 30573.359484    75.744141   125.975493     0.081601     6.125620     0.853420     0.044059    12.040459    85.178196     -9.06791    -81.13201     1.436307 
frames/TS_45_009_15.0.mrc           10    14.999700    85.000000    27.000000     -3.00000 MotionCorr/job002/frames/TS_45_009_15_0_PS.mrc MotionCorr/job002/frames/TS_45_009_15_0_EVN.mrc MotionCorr/job002/frames/TS_45_009_15_0_ODD.mrc MotionCorr/job002/frames/TS_45_009_15_0.mrc MotionCorr/job002/frames/TS_45_009_15_0.star     2.457826     0.000000     2.457826 CtfFind/job003/frames/TS_45_009_15_0_PS.ctf:mrc 30206.679440 30639.779572   354.826172   128.604051     0.074173     5.156098     0.531900     0.037564    15.047108    85.186243     -7.31119    -85.23272     1.417086 
frames/TS_45_012_18.0.mrc           10    17.999800    85.000000    36.000000     -3.00000 MotionCorr/job002/frames/TS_45_012_18_0_PS.mrc MotionCorr/job002/frames/TS_45_012_18_0_EVN.mrc MotionCorr/job002/frames/TS_45_012_18_0_ODD.mrc MotionCorr/job002/frames/TS_45_012_18_0.mrc MotionCorr/job002/frames/TS_45_012_18_0.star     3.005063     0.000000     3.005063 CtfFind/job003/frames/TS_45_012_18_0_PS.ctf:mrc 30207.515326 30622.013226   265.964844   143.678310     0.072552     6.825691     0.830460     0.065929    18.032956    85.188039    -11.33017    -92.55330     1.242980 
frames/TS_45_013_21.0.mrc           10    20.999900    85.000000    39.000000     -3.00000 MotionCorr/job002/frames/TS_45_013_21_0_PS.mrc MotionCorr/job002/frames/TS_45_013_21_0_EVN.mrc MotionCorr/job002/frames/TS_45_013_21_0_ODD.mrc MotionCorr/job002/frames/TS_45_013_21_0.mrc MotionCorr/job002/frames/TS_45_013_21_0.star     2.604872     0.000000     2.604872 CtfFind/job003/frames/TS_45_013_21_0_PS.ctf:mrc 30121.420140 30460.544710   471.238281   129.265398     0.067512     6.761298     0.734180     0.046790    21.034029    85.198391    -11.60511   -107.27400     1.202710 
frames/TS_45_016_24.0.mrc           10    23.999600    85.000000    48.000000     -3.00000 MotionCorr/job002/frames/TS_45_016_24_0_PS.mrc MotionCorr/job002/frames/TS_45_016_24_0_EVN.mrc MotionCorr/job002/frames/TS_45_016_24_0_ODD.mrc MotionCorr/job002/frames/TS_45_016_24_0.mrc MotionCorr/job002/frames/TS_45_016_24_0.star     2.722364     0.000000     2.722364 CtfFind/job003/frames/TS_45_016_24_0_PS.ctf:mrc 30020.893264 30385.426257   430.949219   134.143543     0.085775     7.465600     0.442520     0.061095    24.024680    85.210381     -7.72309   -106.34962     1.167274 
frames/TS_45_017_27.0.mrc           10    26.999700    85.000000    51.000000     -3.00000 MotionCorr/job002/frames/TS_45_017_27_0_PS.mrc MotionCorr/job002/frames/TS_45_017_27_0_EVN.mrc MotionCorr/job002/frames/TS_45_017_27_0_ODD.mrc MotionCorr/job002/frames/TS_45_017_27_0.mrc MotionCorr/job002/frames/TS_45_017_27_0.star     2.314864     0.000000     2.314864 CtfFind/job003/frames/TS_45_017_27_0_PS.ctf:mrc 29948.764846 30563.477079   257.986328   132.484032     0.069649     7.313241     0.702630     0.043924    27.047811    85.222108     -9.17950   -120.41292     1.123545 
frames/TS_45_020_30.0.mrc           10    29.997800    85.000000    60.000000     -3.00000 MotionCorr/job002/frames/TS_45_020_30_0_PS.mrc MotionCorr/job002/frames/TS_45_020_30_0_EVN.mrc MotionCorr/job002/frames/TS_45_020_30_0_ODD.mrc MotionCorr/job002/frames/TS_45_020_30_0.mrc MotionCorr/job002/frames/TS_45_020_30_0.star     3.026604     0.000000     3.026604 CtfFind/job003/frames/TS_45_020_30_0_PS.ctf:mrc 29933.345508 30553.068036   224.128906   156.160068     0.054645     8.431736     0.980070     0.039660    30.043453    85.220711    -12.19829   -121.02311     0.914971 
frames/TS_45_021_33.0.mrc           10    32.998000    85.000000    63.000000     -3.00000 MotionCorr/job002/frames/TS_45_021_33_0_PS.mrc MotionCorr/job002/frames/TS_45_021_33_0_EVN.mrc MotionCorr/job002/frames/TS_45_021_33_0_ODD.mrc MotionCorr/job002/frames/TS_45_021_33_0.mrc MotionCorr/job002/frames/TS_45_021_33_0.star     3.399792     0.000000     3.399792 CtfFind/job003/frames/TS_45_021_33_0_PS.ctf:mrc 29900.576775 30235.102645    75.126953   147.052742     0.090675     7.790191     0.718600     0.049872    33.058738    85.232121    -10.09357   -132.13270     0.998568 
frames/TS_45_024_36.0.mrc           10    35.998100    85.000000    72.000000     -3.00000 MotionCorr/job002/frames/TS_45_024_36_0_PS.mrc MotionCorr/job002/frames/TS_45_024_36_0_EVN.mrc MotionCorr/job002/frames/TS_45_024_36_0_ODD.mrc MotionCorr/job002/frames/TS_45_024_36_0.mrc MotionCorr/job002/frames/TS_45_024_36_0.star     4.101934     0.000000     4.101934 CtfFind/job003/frames/TS_45_024_36_0_PS.ctf:mrc 30074.573914 30500.365540   347.212891   129.695488     0.091184     8.740214     0.584720     0.054194    36.080673    85.236384    -12.49949   -130.17459     0.999684 
frames/TS_45_025_39.0.mrc           10    38.996700    85.000000    75.000000     -3.00000 MotionCorr/job002/frames/TS_45_025_39_0_PS.mrc MotionCorr/job002/frames/TS_45_025_39_0_EVN.mrc MotionCorr/job002/frames/TS_45_025_39_0_ODD.mrc MotionCorr/job002/frames/TS_45_025_39_0.mrc MotionCorr/job002/frames/TS_45_025_39_0.star     4.374145     0.000000     4.374145 CtfFind/job003/frames/TS_45_025_39_0_PS.ctf:mrc 30053.813126 30632.949315   381.396484   157.028684     0.086312     9.817775     0.477290     0.087714    39.086715    85.272949     -0.19554   -136.07435     0.942479 
frames/TS_45_028_42.0.mrc           10    41.996900    85.000000    84.000000     -3.00000 MotionCorr/job002/frames/TS_45_028_42_0_PS.mrc MotionCorr/job002/frames/TS_45_028_42_0_EVN.mrc MotionCorr/job002/frames/TS_45_028_42_0_ODD.mrc MotionCorr/job002/frames/TS_45_028_42_0.mrc MotionCorr/job002/frames/TS_45_028_42_0.star     4.127412     0.000000     4.127412 CtfFind/job003/frames/TS_45_028_42_0_PS.ctf:mrc 30261.688723 31119.486248   242.345703   178.542052     0.100596    10.238537     0.839120     0.059467    42.069496    85.272141    -18.93435   -137.52087     0.909841 
frames/TS_45_029_45.0.mrc           10    44.997000    85.000000    87.000000     -3.00000 MotionCorr/job002/frames/TS_45_029_45_0_PS.mrc MotionCorr/job002/frames/TS_45_029_45_0_EVN.mrc MotionCorr/job002/frames/TS_45_029_45_0_ODD.mrc MotionCorr/job002/frames/TS_45_029_45_0.mrc MotionCorr/job002/frames/TS_45_029_45_0.star     5.118741     0.000000     5.118741 CtfFind/job003/frames/TS_45_029_45_0_PS.ctf:mrc 30089.615622 30761.058344   136.535156   118.407327     0.109358     9.954133     0.542830     0.062880    45.063012    85.275490     -7.70934   -145.80495     0.788911 
frames/TS_45_032_48.0.mrc           10    47.996100    85.000000    96.000000     -3.00000 MotionCorr/job002/frames/TS_45_032_48_0_PS.mrc MotionCorr/job002/frames/TS_45_032_48_0_EVN.mrc MotionCorr/job002/frames/TS_45_032_48_0_ODD.mrc MotionCorr/job002/frames/TS_45_032_48_0.mrc MotionCorr/job002/frames/TS_45_032_48_0.star     5.879206     0.000000     5.879206 CtfFind/job003/frames/TS_45_032_48_0_PS.ctf:mrc 30235.279635 30483.248663    90.181641   159.888730     0.137888    11.026116     0.547000     0.096245    48.106964    85.299110    -24.97316   -154.01698     0.704479 
frames/TS_45_033_51.0.mrc           10    50.996300    85.000000    99.000000     -3.00000 MotionCorr/job002/frames/TS_45_033_51_0_PS.mrc MotionCorr/job002/frames/TS_45_033_51_0_EVN.mrc MotionCorr/job002/frames/TS_45_033_51_0_ODD.mrc MotionCorr/job002/frames/TS_45_033_51_0.mrc MotionCorr/job002/frames/TS_45_033_51_0.star     6.903821     0.000000     6.903821 CtfFind/job003/frames/TS_45_033_51_0_PS.ctf:mrc 30500.135795 30781.204379   308.355469   148.025296     0.122605    11.198400     0.831490     0.116390    51.117191    85.353645     -8.39795   -160.56157     0.652330 
frames/TS_45_036_54.0.mrc           10    53.996900    85.000000   108.000000     -3.00000 MotionCorr/job002/frames/TS_45_036_54_0_PS.mrc MotionCorr/job002/frames/TS_45_036_54_0_EVN.mrc MotionCorr/job002/frames/TS_45_036_54_0_ODD.mrc MotionCorr/job002/frames/TS_45_036_54_0.mrc MotionCorr/job002/frames/TS_45_036_54_0.star     7.638391     0.000000     7.638391 CtfFind/job003/frames/TS_45_036_54_0_PS.ctf:mrc 30112.936439 30366.870317    59.330078   141.831831     0.149805    14.626481     0.689700     0.050715    54.179870    85.339113    -20.99770   -167.41101     0.610944 
frames/TS_45_037_57.0.mrc           10    56.996500    85.000000   111.000000     -3.00000 MotionCorr/job002/frames/TS_45_037_57_0_PS.mrc MotionCorr/job002/frames/TS_45_037_57_0_EVN.mrc MotionCorr/job002/frames/TS_45_037_57_0_ODD.mrc MotionCorr/job002/frames/TS_45_037_57_0.mrc MotionCorr/job002/frames/TS_45_037_57_0.star     9.203906     0.000000     9.203906 CtfFind/job003/frames/TS_45_037_57_0_PS.ctf:mrc 30234.228261 30580.285788    31.580078   161.912499     0.163641    11.198400     0.647150     0.091632    57.140395    85.388968    -11.58111   -174.44494     0.521962 
frames/TS_45_040_60.0.mrc           10    59.995200    85.000000   120.000000     -3.00000 MotionCorr/job002/frames/TS_45_040_60_0_PS.mrc MotionCorr/job002/frames/TS_45_040_60_0_EVN.mrc MotionCorr/job002/frames/TS_45_040_60_0_ODD.mrc MotionCorr/job002/frames/TS_45_040_60_0.mrc MotionCorr/job002/frames/TS_45_040_60_0.star     9.473847     0.000000     9.473847 CtfFind/job003/frames/TS_45_040_60_0_PS.ctf:mrc 30676.605622 30865.230768    78.396484   125.851798     0.168395    13.522596     0.521260     0.103446    60.160429    85.367088    -23.29471   -183.74191     0.609642 
 
