
# version 50001

data_TS_54

loop_ 
_rlnMicrographMovieName #1 
_rlnTomoTiltMovieFrameCount #2 
_rlnTomoNominalStageTiltAngle #3 
_rlnTomoNominalTiltAxisAngle #4 
_rlnMicrographPreExposure #5 
_rlnTomoNominalDefocus #6 
_rlnCtfPowerSpectrum #7 
_rlnMicrographNameEven #8 
_rlnMicrographNameOdd #9 
_rlnMicrographName #10 
_rlnMicrographMetadata #11 
_rlnAccumMotionTotal #12 
_rlnAccumMotionEarly #13 
_rlnAccumMotionLate #14 
_rlnCtfImage #15 
_rlnDefocusU #16 
_rlnDefocusV #17 
_rlnCtfAstigmatism #18 
_rlnDefocusAngle #19 
_rlnCtfFigureOfMerit #20 
_rlnCtfMaxResolution #21 
_rlnCtfIceRingDensity #22 
_rlnTomoXTilt #23 
_rlnTomoYTilt #24 
_rlnTomoZRot #25 
_rlnTomoXShiftAngst #26 
_rlnTomoYShiftAngst #27 
_rlnCtfScalefactor #28 
frames/TS_54_039_-60.0.mrc           10    -59.99910    85.000000   117.000000     -1.50000 MotionCorr/job002/frames/TS_54_039_-60_0_PS.mrc MotionCorr/job002/frames/TS_54_039_-60_0_EVN.mrc MotionCorr/job002/frames/TS_54_039_-60_0_ODD.mrc MotionCorr/job002/frames/TS_54_039_-60_0.mrc MotionCorr/job002/frames/TS_54_039_-60_0.star    15.025143     0.000000    15.025143 CtfFind/job003/frames/TS_54_039_-60_0_PS.ctf:mrc 17901.099493 17963.306509    42.291016   163.952965     0.128431    12.573642     1.218770     1.187922    -54.67267    90.848660   -348.95932  -1042.91439     -0.12819 
frames/TS_54_038_-57.0.mrc           10    -56.99900    85.000000   114.000000     -1.50000 MotionCorr/job002/frames/TS_54_038_-57_0_PS.mrc MotionCorr/job002/frames/TS_54_038_-57_0_EVN.mrc MotionCorr/job002/frames/TS_54_038_-57_0_ODD.mrc MotionCorr/job002/frames/TS_54_038_-57_0.mrc MotionCorr/job002/frames/TS_54_038_-57_0.star    15.521387     0.000000    15.521387 CtfFind/job003/frames/TS_54_038_-57_0_PS.ctf:mrc 16611.927065 16790.096242   109.835938   150.409470     0.125754    25.000000     0.590680     0.393371    -56.35139    69.284067    82.793543   -238.33034     -0.07976 
frames/TS_54_035_-54.0.mrc           10    -53.99940    85.000000   105.000000     -1.50000 MotionCorr/job002/frames/TS_54_035_-54_0_PS.mrc MotionCorr/job002/frames/TS_54_035_-54_0_EVN.mrc MotionCorr/job002/frames/TS_54_035_-54_0_ODD.mrc MotionCorr/job002/frames/TS_54_035_-54_0.mrc MotionCorr/job002/frames/TS_54_035_-54_0.star    12.397099     0.000000    12.397099 CtfFind/job003/frames/TS_54_035_-54_0_PS.ctf:mrc 16154.032010 16260.268032    98.336914    90.153484     0.141127    25.000000     0.655740     0.641097    -53.67246    82.696633     1.003691   -164.14269     0.036310 
frames/TS_54_034_-51.0.mrc           10    -50.99930    85.000000   102.000000     -1.50000 MotionCorr/job002/frames/TS_54_034_-51_0_PS.mrc MotionCorr/job002/frames/TS_54_034_-51_0_EVN.mrc MotionCorr/job002/frames/TS_54_034_-51_0_ODD.mrc MotionCorr/job002/frames/TS_54_034_-51_0.mrc MotionCorr/job002/frames/TS_54_034_-51_0.star    12.299811     0.000000    12.299811 CtfFind/job003/frames/TS_54_034_-51_0_PS.ctf:mrc 15594.077578 15799.771997   182.346680   -150.37315     0.163578    11.559638     1.139510     -0.18804    -51.36604    84.805948    -14.86140   -121.85552     0.486382 
frames/TS_54_031_-48.0.mrc           10    -47.99960    85.000000    93.000000     -1.50000 MotionCorr/job002/frames/TS_54_031_-48_0_PS.mrc MotionCorr/job002/frames/TS_54_031_-48_0_EVN.mrc MotionCorr/job002/frames/TS_54_031_-48_0_ODD.mrc MotionCorr/job002/frames/TS_54_031_-48_0.mrc MotionCorr/job002/frames/TS_54_031_-48_0.star     9.515987     0.000000     9.515987 CtfFind/job003/frames/TS_54_031_-48_0_PS.ctf:mrc 15716.400246 16022.665535    87.428711   -178.44238     0.100363    10.539670     0.870450     -0.19030    -48.29137    84.954197     -9.48343   -109.07081     0.759672 
frames/TS_54_030_-45.0.mrc           10    -45.00000    85.000000    90.000000     -1.50000 MotionCorr/job002/frames/TS_54_030_-45_0_PS.mrc MotionCorr/job002/frames/TS_54_030_-45_0_EVN.mrc MotionCorr/job002/frames/TS_54_030_-45_0_ODD.mrc MotionCorr/job002/frames/TS_54_030_-45_0.mrc MotionCorr/job002/frames/TS_54_030_-45_0.star    10.815727     0.000000    10.815727 CtfFind/job003/frames/TS_54_030_-45_0_PS.ctf:mrc 15667.840385 15792.634019    85.271484   136.420310     0.154878    10.539670     0.768430     -0.22165    -45.37677    85.020431     -5.17085    -87.38520     0.802567 
frames/TS_54_027_-42.0.mrc           10    -42.00040    85.000000    81.000000     -1.50000 MotionCorr/job002/frames/TS_54_027_-42_0_PS.mrc MotionCorr/job002/frames/TS_54_027_-42_0_EVN.mrc MotionCorr/job002/frames/TS_54_027_-42_0_ODD.mrc MotionCorr/job002/frames/TS_54_027_-42_0.mrc MotionCorr/job002/frames/TS_54_027_-42_0.star     8.590184     0.000000     8.590184 CtfFind/job003/frames/TS_54_027_-42_0_PS.ctf:mrc 15680.460453 16086.440734   166.293945   168.289488     0.125000    10.539670     0.725910     -0.21039    -42.38088    85.014422     -0.74969    -69.27255     0.822682 
frames/TS_54_026_-39.0.mrc           10    -39.00020    85.000000    78.000000     -1.50000 MotionCorr/job002/frames/TS_54_026_-39_0_PS.mrc MotionCorr/job002/frames/TS_54_026_-39_0_EVN.mrc MotionCorr/job002/frames/TS_54_026_-39_0_ODD.mrc MotionCorr/job002/frames/TS_54_026_-39_0.mrc MotionCorr/job002/frames/TS_54_026_-39_0.star     8.366590     0.000000     8.366590 CtfFind/job003/frames/TS_54_026_-39_0_PS.ctf:mrc 15525.050263 15804.421988   143.519531   141.217901     0.117415    11.559638     0.662560     -0.26747    -39.41288    85.070466     6.832502    -52.47682     0.761094 
frames/TS_54_023_-36.0.mrc           10    -36.00010    85.000000    69.000000     -1.50000 MotionCorr/job002/frames/TS_54_023_-36_0_PS.mrc MotionCorr/job002/frames/TS_54_023_-36_0_EVN.mrc MotionCorr/job002/frames/TS_54_023_-36_0_ODD.mrc MotionCorr/job002/frames/TS_54_023_-36_0.mrc MotionCorr/job002/frames/TS_54_023_-36_0.star     7.357381     0.000000     7.357381 CtfFind/job003/frames/TS_54_023_-36_0_PS.ctf:mrc 15068.085773 15676.239690   288.270508   -154.86001     0.090527     9.817775     0.500270     -0.17496    -36.34569    85.037591     -3.75082    -55.42295     0.977454 
frames/TS_54_022_-33.0.mrc           10    -32.99950    85.000000    66.000000     -1.50000 MotionCorr/job002/frames/TS_54_022_-33_0_PS.mrc MotionCorr/job002/frames/TS_54_022_-33_0_EVN.mrc MotionCorr/job002/frames/TS_54_022_-33_0_ODD.mrc MotionCorr/job002/frames/TS_54_022_-33_0.mrc MotionCorr/job002/frames/TS_54_022_-33_0.star     8.160680     0.000000     8.160680 CtfFind/job003/frames/TS_54_022_-33_0_PS.ctf:mrc 15062.008264 15660.836444   294.715820   179.508997     0.103930     8.532114     0.868000     -0.19999    -33.35236    85.044619     -6.46630    -46.68718     0.995309 
frames/TS_54_019_-30.0.mrc           10    -30.00030    85.000000    57.000000     -1.50000 MotionCorr/job002/frames/TS_54_019_-30_0_PS.mrc MotionCorr/job002/frames/TS_54_019_-30_0_EVN.mrc MotionCorr/job002/frames/TS_54_019_-30_0_ODD.mrc MotionCorr/job002/frames/TS_54_019_-30_0.mrc MotionCorr/job002/frames/TS_54_019_-30_0.star     6.365004     0.000000     6.365004 CtfFind/job003/frames/TS_54_019_-30_0_PS.ctf:mrc 15241.773018 15309.484681   301.435547   135.279959     0.092739     9.430231     0.658210     -0.15375    -30.32329    85.038179    -11.45112    -41.87631     1.081297 
frames/TS_54_018_-27.0.mrc           10    -27.00170    85.000000    54.000000     -1.50000 MotionCorr/job002/frames/TS_54_018_-27_0_PS.mrc MotionCorr/job002/frames/TS_54_018_-27_0_EVN.mrc MotionCorr/job002/frames/TS_54_018_-27_0_ODD.mrc MotionCorr/job002/frames/TS_54_018_-27_0.mrc MotionCorr/job002/frames/TS_54_018_-27_0.star     7.058289     0.000000     7.058289 CtfFind/job003/frames/TS_54_018_-27_0_PS.ctf:mrc 14898.957088 15426.299585   325.508789   -167.47547     0.086891     9.072121     0.527930     -0.19342    -27.32765    85.059264    -17.62692    -37.39904     1.088904 
frames/TS_54_015_-24.0.mrc           10    -24.00010    85.000000    45.000000     -1.50000 MotionCorr/job002/frames/TS_54_015_-24_0_PS.mrc MotionCorr/job002/frames/TS_54_015_-24_0_EVN.mrc MotionCorr/job002/frames/TS_54_015_-24_0_ODD.mrc MotionCorr/job002/frames/TS_54_015_-24_0.mrc MotionCorr/job002/frames/TS_54_015_-24_0.star     6.120384     0.000000     6.120384 CtfFind/job003/frames/TS_54_015_-24_0_PS.ctf:mrc 15087.013198 15244.075442   771.327148    98.222420     0.071205     7.388635     0.564480     -0.19502    -24.26263    85.065294    -20.30599    -35.97154     1.334577 
frames/TS_54_014_-21.0.mrc           10    -21.00040    85.000000    42.000000     -1.50000 MotionCorr/job002/frames/TS_54_014_-21_0_PS.mrc MotionCorr/job002/frames/TS_54_014_-21_0_EVN.mrc MotionCorr/job002/frames/TS_54_014_-21_0_ODD.mrc MotionCorr/job002/frames/TS_54_014_-21_0.mrc MotionCorr/job002/frames/TS_54_014_-21_0.star     5.664473     0.000000     5.664473 CtfFind/job003/frames/TS_54_014_-21_0_PS.ctf:mrc 14647.457243 15439.781572   199.931641   141.856905     0.075342     7.963306     0.662400     -0.18806    -21.19277    85.066638    -23.41953    -36.65721     1.249605 
frames/TS_54_011_-18.0.mrc           10    -18.00180    85.000000    33.000000     -1.50000 MotionCorr/job002/frames/TS_54_011_-18_0_PS.mrc MotionCorr/job002/frames/TS_54_011_-18_0_EVN.mrc MotionCorr/job002/frames/TS_54_011_-18_0_ODD.mrc MotionCorr/job002/frames/TS_54_011_-18_0.mrc MotionCorr/job002/frames/TS_54_011_-18_0.star     5.176144     0.000000     5.176144 CtfFind/job003/frames/TS_54_011_-18_0_PS.ctf:mrc 15164.493044 15347.069621     0.000000   138.547643     0.088412     6.958229     0.985870     -0.17084    -18.11484    85.070389    -17.45324    -23.07027     1.394212 
frames/TS_54_010_-15.0.mrc           10    -15.00320    85.000000    30.000000     -1.50000 MotionCorr/job002/frames/TS_54_010_-15_0_PS.mrc MotionCorr/job002/frames/TS_54_010_-15_0_EVN.mrc MotionCorr/job002/frames/TS_54_010_-15_0_ODD.mrc MotionCorr/job002/frames/TS_54_010_-15_0.mrc MotionCorr/job002/frames/TS_54_010_-15_0.star     5.213246     0.000000     5.213246 CtfFind/job003/frames/TS_54_010_-15_0_PS.ctf:mrc 15095.247315 15312.922599    65.493164   110.912416     0.081766     6.636089     0.901650     -0.17150    -15.07463    85.077477    -20.72241    -32.11976     1.478583 
frames/TS_54_007_-12.0.mrc           10    -11.99850    85.000000    21.000000     -1.50000 MotionCorr/job002/frames/TS_54_007_-12_0_PS.mrc MotionCorr/job002/frames/TS_54_007_-12_0_EVN.mrc MotionCorr/job002/frames/TS_54_007_-12_0_ODD.mrc MotionCorr/job002/frames/TS_54_007_-12_0.mrc MotionCorr/job002/frames/TS_54_007_-12_0.star     4.194469     0.000000     4.194469 CtfFind/job003/frames/TS_54_007_-12_0_PS.ctf:mrc 15115.339517 15312.737580     0.001953   126.945715     0.097848     5.874570     0.694140     -0.16984    -12.06314    85.077190    -18.85978    -14.49397     1.693823 
frames/TS_54_006_-9.0.mrc           10     -8.99940    85.000000    18.000000     -1.50000 MotionCorr/job002/frames/TS_54_006_-9_0_PS.mrc MotionCorr/job002/frames/TS_54_006_-9_0_EVN.mrc MotionCorr/job002/frames/TS_54_006_-9_0_ODD.mrc MotionCorr/job002/frames/TS_54_006_-9_0.mrc MotionCorr/job002/frames/TS_54_006_-9_0.star     4.226744     0.000000     4.226744 CtfFind/job003/frames/TS_54_006_-9_0_PS.ctf:mrc 15025.897382 15264.260810   126.666992   134.081326     0.087386     5.429527     0.606490     -0.16238     -9.01325    85.079919    -17.98832    -26.18142     1.665554 
frames/TS_54_003_-6.0.mrc           10     -5.99876    85.000000     9.000000     -1.50000 MotionCorr/job002/frames/TS_54_003_-6_0_PS.mrc MotionCorr/job002/frames/TS_54_003_-6_0_EVN.mrc MotionCorr/job002/frames/TS_54_003_-6_0_ODD.mrc MotionCorr/job002/frames/TS_54_003_-6_0.mrc MotionCorr/job002/frames/TS_54_003_-6_0.star     4.304615     0.000000     4.304615 CtfFind/job003/frames/TS_54_003_-6_0_PS.ctf:mrc 15045.459191 15272.102753   210.468750   122.897336     0.094744     5.119268     1.053120     -0.10971     -5.99111    85.069359    -18.30049     -5.53327     1.789446 
frames/TS_54_002_-3.0.mrc           10     -2.99963    85.000000     6.000000     -1.50000 MotionCorr/job002/frames/TS_54_002_-3_0_PS.mrc MotionCorr/job002/frames/TS_54_002_-3_0_EVN.mrc MotionCorr/job002/frames/TS_54_002_-3_0_ODD.mrc MotionCorr/job002/frames/TS_54_002_-3_0.mrc MotionCorr/job002/frames/TS_54_002_-3_0.star     3.218856     0.000000     3.218856 CtfFind/job003/frames/TS_54_002_-3_0_PS.ctf:mrc 15097.928022 15321.209512   211.693359   132.673095     0.098356     5.082961     0.615130     -0.07627     -2.95673    85.069233    -22.62957    -28.78455     1.934005 
frames/TS_54_000_-0.0.mrc           10 -5.00000e-04    85.000000     0.000000     -1.50000 MotionCorr/job002/frames/TS_54_000_-0_0_PS.mrc MotionCorr/job002/frames/TS_54_000_-0_0_EVN.mrc MotionCorr/job002/frames/TS_54_000_-0_0_ODD.mrc MotionCorr/job002/frames/TS_54_000_-0_0.mrc MotionCorr/job002/frames/TS_54_000_-0_0.star     3.898448     2.142234     1.756215 CtfFind/job003/frames/TS_54_000_-0_0_PS.ctf:mrc 15145.129550 15365.791994   265.158203   128.633528     0.093887     5.119268     0.826400     -0.00861     0.051291    85.067990    -14.86109    -35.39904     2.040282 
frames/TS_54_001_3.0.mrc           10     2.999630    85.000000     3.000000     -1.50000 MotionCorr/job002/frames/TS_54_001_3_0_PS.mrc MotionCorr/job002/frames/TS_54_001_3_0_EVN.mrc MotionCorr/job002/frames/TS_54_001_3_0_ODD.mrc MotionCorr/job002/frames/TS_54_001_3_0.mrc MotionCorr/job002/frames/TS_54_001_3_0.star     2.820754     0.000000     2.820754 CtfFind/job003/frames/TS_54_001_3_0_PS.ctf:mrc 15118.864597 15359.916931   273.129883   127.805374     0.093105     5.231369     0.492000     -0.06979     3.083717    85.077373    -23.12367    -41.41735     1.870829 
frames/TS_54_004_6.0.mrc           10     5.999760    85.000000    12.000000     -1.50000 MotionCorr/job002/frames/TS_54_004_6_0_PS.mrc MotionCorr/job002/frames/TS_54_004_6_0_EVN.mrc MotionCorr/job002/frames/TS_54_004_6_0_ODD.mrc MotionCorr/job002/frames/TS_54_004_6_0.mrc MotionCorr/job002/frames/TS_54_004_6_0.star     3.085074     0.000000     3.085074 CtfFind/job003/frames/TS_54_004_6_0_PS.ctf:mrc 14971.121302 15227.357209   409.930664   133.402160     0.087902     5.156098     1.092580     -0.15086     6.122839    85.095552    -21.71208    -46.36703     1.781689 
frames/TS_54_005_9.0.mrc           10     8.999400    85.000000    15.000000     -1.50000 MotionCorr/job002/frames/TS_54_005_9_0_PS.mrc MotionCorr/job002/frames/TS_54_005_9_0_EVN.mrc MotionCorr/job002/frames/TS_54_005_9_0_ODD.mrc MotionCorr/job002/frames/TS_54_005_9_0.mrc MotionCorr/job002/frames/TS_54_005_9_0.star     2.978818     0.000000     2.978818 CtfFind/job003/frames/TS_54_005_9_0_PS.ctf:mrc 14996.690715 15290.323663   461.936523   125.033898     0.103138     5.269835     0.700960     -0.17471     9.137383    85.105045    -19.52067    -33.99191     1.757771 
frames/TS_54_008_12.0.mrc           10    12.000500    85.000000    24.000000     -1.50000 MotionCorr/job002/frames/TS_54_008_12_0_PS.mrc MotionCorr/job002/frames/TS_54_008_12_0_EVN.mrc MotionCorr/job002/frames/TS_54_008_12_0_ODD.mrc MotionCorr/job002/frames/TS_54_008_12_0.mrc MotionCorr/job002/frames/TS_54_008_12_0.star     3.162589     0.000000     3.162589 CtfFind/job003/frames/TS_54_008_12_0_PS.ctf:mrc 14978.797403 15210.899314    99.137695   130.045420     0.076736     6.178427     0.835920     -0.21463    12.163300    85.124565    -18.96412    -42.48152     1.616366 
frames/TS_54_009_15.0.mrc           10    15.000200    85.000000    27.000000     -1.50000 MotionCorr/job002/frames/TS_54_009_15_0_PS.mrc MotionCorr/job002/frames/TS_54_009_15_0_EVN.mrc MotionCorr/job002/frames/TS_54_009_15_0_ODD.mrc MotionCorr/job002/frames/TS_54_009_15_0.mrc MotionCorr/job002/frames/TS_54_009_15_0.star     3.562077     0.000000     3.562077 CtfFind/job003/frames/TS_54_009_15_0_PS.ctf:mrc 14931.315788 15307.474212   238.048828   132.501201     0.093326     6.232153     1.033810     -0.20005    15.144256    85.135075    -15.65675    -26.34043     1.640125 
frames/TS_54_012_18.0.mrc           10    18.000800    85.000000    36.000000     -1.50000 MotionCorr/job002/frames/TS_54_012_18_0_PS.mrc MotionCorr/job002/frames/TS_54_012_18_0_EVN.mrc MotionCorr/job002/frames/TS_54_012_18_0_ODD.mrc MotionCorr/job002/frames/TS_54_012_18_0.mrc MotionCorr/job002/frames/TS_54_012_18_0.star     4.641988     0.000000     4.641988 CtfFind/job003/frames/TS_54_012_18_0_PS.ctf:mrc 14991.893653 15269.595709   369.802734   132.373860     0.075756     6.761298     0.585740     -0.19510    18.173522    85.151647    -13.81361    -36.05036     1.386561 
frames/TS_54_013_21.0.mrc           10    21.000400    85.000000    39.000000     -1.50000 MotionCorr/job002/frames/TS_54_013_21_0_PS.mrc MotionCorr/job002/frames/TS_54_013_21_0_EVN.mrc MotionCorr/job002/frames/TS_54_013_21_0_ODD.mrc MotionCorr/job002/frames/TS_54_013_21_0.mrc MotionCorr/job002/frames/TS_54_013_21_0.star     3.758693     0.000000     3.758693 CtfFind/job003/frames/TS_54_013_21_0_PS.ctf:mrc 14979.069887 15465.562196   339.397461   160.035247     0.069856     6.515432     0.798500     -0.24165    21.117612    85.148877    -10.84289    -22.10066     1.240072 
frames/TS_54_016_24.0.mrc           10    24.000100    85.000000    48.000000     -1.50000 MotionCorr/job002/frames/TS_54_016_24_0_PS.mrc MotionCorr/job002/frames/TS_54_016_24_0_EVN.mrc MotionCorr/job002/frames/TS_54_016_24_0_ODD.mrc MotionCorr/job002/frames/TS_54_016_24_0.mrc MotionCorr/job002/frames/TS_54_016_24_0.star     5.241663     0.000000     5.241663 CtfFind/job003/frames/TS_54_016_24_0_PS.ctf:mrc 14427.248962 15057.854565   393.947266   -176.85563     0.088287     7.388635     0.645080     -0.25208    24.114580    85.152625    -11.23944    -34.59976     1.202640 
frames/TS_54_017_27.0.mrc           10    26.999700    85.000000    51.000000     -1.50000 MotionCorr/job002/frames/TS_54_017_27_0_PS.mrc MotionCorr/job002/frames/TS_54_017_27_0_EVN.mrc MotionCorr/job002/frames/TS_54_017_27_0_ODD.mrc MotionCorr/job002/frames/TS_54_017_27_0.mrc MotionCorr/job002/frames/TS_54_017_27_0.star     4.953899     0.000000     4.953899 CtfFind/job003/frames/TS_54_017_27_0_PS.ctf:mrc 14889.728793 15471.103291    88.263672   135.058053     0.084095     7.963306     0.643290     -0.24418    27.115915    85.164937     -9.53395    -22.29630     1.163183 
frames/TS_54_020_30.0.mrc           10    29.999300    85.000000    60.000000     -1.50000 MotionCorr/job002/frames/TS_54_020_30_0_PS.mrc MotionCorr/job002/frames/TS_54_020_30_0_EVN.mrc MotionCorr/job002/frames/TS_54_020_30_0_ODD.mrc MotionCorr/job002/frames/TS_54_020_30_0.mrc MotionCorr/job002/frames/TS_54_020_30_0.star     5.211208     0.000000     5.211208 CtfFind/job003/frames/TS_54_020_30_0_PS.ctf:mrc 15033.552989 15572.986183   444.293945   103.667855     0.091226     7.963306     0.674620     -0.25634    30.070922    85.178335    -15.27827    -31.77588     1.074615 
frames/TS_54_021_33.0.mrc           10    32.999500    85.000000    63.000000     -1.50000 MotionCorr/job002/frames/TS_54_021_33_0_PS.mrc MotionCorr/job002/frames/TS_54_021_33_0_EVN.mrc MotionCorr/job002/frames/TS_54_021_33_0_ODD.mrc MotionCorr/job002/frames/TS_54_021_33_0.mrc MotionCorr/job002/frames/TS_54_021_33_0.star     5.540879     0.000000     5.540879 CtfFind/job003/frames/TS_54_021_33_0_PS.ctf:mrc 15092.208943 15538.640653   117.846680   147.600036     0.070125     9.307761     1.282160     -0.28734    33.045037    85.175794     -9.00617    -15.46486     0.948078 
frames/TS_54_024_36.0.mrc           10    36.000100    85.000000    72.000000     -1.50000 MotionCorr/job002/frames/TS_54_024_36_0_PS.mrc MotionCorr/job002/frames/TS_54_024_36_0_EVN.mrc MotionCorr/job002/frames/TS_54_024_36_0_ODD.mrc MotionCorr/job002/frames/TS_54_024_36_0.mrc MotionCorr/job002/frames/TS_54_024_36_0.star     6.820884     0.000000     6.820884 CtfFind/job003/frames/TS_54_024_36_0_PS.ctf:mrc 15175.232879 15672.911449   117.241211   -146.65155     0.119576     9.555968     0.611340     -0.34657    36.028369    85.173725    -11.66160    -37.41496     1.039304 
frames/TS_54_025_39.0.mrc           10    38.999200    85.000000    75.000000     -1.50000 MotionCorr/job002/frames/TS_54_025_39_0_PS.mrc MotionCorr/job002/frames/TS_54_025_39_0_EVN.mrc MotionCorr/job002/frames/TS_54_025_39_0_ODD.mrc MotionCorr/job002/frames/TS_54_025_39_0.mrc MotionCorr/job002/frames/TS_54_025_39_0.star     7.490082     0.000000     7.490082 CtfFind/job003/frames/TS_54_025_39_0_PS.ctf:mrc 15208.777281 15743.878655     0.000000   122.212346     0.117302    10.094332     0.737300     -0.25975    39.061598    85.186775     -1.10956    -18.80341     0.973430 
frames/TS_54_028_42.0.mrc           10    41.996900    85.000000    84.000000     -1.50000 MotionCorr/job002/frames/TS_54_028_42_0_PS.mrc MotionCorr/job002/frames/TS_54_028_42_0_EVN.mrc MotionCorr/job002/frames/TS_54_028_42_0_ODD.mrc MotionCorr/job002/frames/TS_54_028_42_0.mrc MotionCorr/job002/frames/TS_54_028_42_0.star     8.404922     0.000000     8.404922 CtfFind/job003/frames/TS_54_028_42_0_PS.ctf:mrc 15209.718185 15848.852534   341.065430   120.814878     0.121007    10.696979     0.713250     -0.31976    42.022578    85.216683    -14.91125    -30.70613     0.870410 
frames/TS_54_029_45.0.mrc           10    44.997500    85.000000    87.000000     -1.50000 MotionCorr/job002/frames/TS_54_029_45_0_PS.mrc MotionCorr/job002/frames/TS_54_029_45_0_EVN.mrc MotionCorr/job002/frames/TS_54_029_45_0_ODD.mrc MotionCorr/job002/frames/TS_54_029_45_0.mrc MotionCorr/job002/frames/TS_54_029_45_0.star     8.971955     0.000000     8.971955 CtfFind/job003/frames/TS_54_029_45_0_PS.ctf:mrc 14821.553649 14951.794923    99.777344   149.458574     0.145571    11.376152     0.548480     -0.26808    44.992944    85.262903     2.723091    -19.80787     0.751724 
frames/TS_54_032_48.0.mrc           10    47.998100    85.000000    96.000000     -1.50000 MotionCorr/job002/frames/TS_54_032_48_0_PS.mrc MotionCorr/job002/frames/TS_54_032_48_0_EVN.mrc MotionCorr/job002/frames/TS_54_032_48_0_ODD.mrc MotionCorr/job002/frames/TS_54_032_48_0.mrc MotionCorr/job002/frames/TS_54_032_48_0.star     7.462951     0.000000     7.462951 CtfFind/job003/frames/TS_54_032_48_0_PS.ctf:mrc 14687.783393 14876.552143    99.599609   143.858232     0.110570    11.198400     0.608910     -0.29409    47.921043    85.298466    -20.14413    -38.18086     0.691798 
frames/TS_54_033_51.0.mrc           10    50.996300    85.000000    99.000000     -1.50000 MotionCorr/job002/frames/TS_54_033_51_0_PS.mrc MotionCorr/job002/frames/TS_54_033_51_0_EVN.mrc MotionCorr/job002/frames/TS_54_033_51_0_ODD.mrc MotionCorr/job002/frames/TS_54_033_51_0.mrc MotionCorr/job002/frames/TS_54_033_51_0.star     9.473860     0.000000     9.473860 CtfFind/job003/frames/TS_54_033_51_0_PS.ctf:mrc 15288.993974 15457.800602    91.287109   163.861196     0.127937    11.198400     0.528160     -0.37213    50.935297    85.260434     -3.99379    -36.37388     0.639885 
frames/TS_54_036_54.0.mrc           10    53.997400    85.000000   108.000000     -1.50000 MotionCorr/job002/frames/TS_54_036_54_0_PS.mrc MotionCorr/job002/frames/TS_54_036_54_0_EVN.mrc MotionCorr/job002/frames/TS_54_036_54_0_ODD.mrc MotionCorr/job002/frames/TS_54_036_54_0.mrc MotionCorr/job002/frames/TS_54_036_54_0.star    10.354688     0.000000    10.354688 CtfFind/job003/frames/TS_54_036_54_0_PS.ctf:mrc 15101.756833 15187.270336   102.067383   138.050273     0.132164    25.000000     1.123490     -0.52840    53.847941    85.176305    -28.54031    -52.12545     0.647960 
frames/TS_54_037_57.0.mrc           10    56.996500    85.000000   111.000000     -1.50000 MotionCorr/job002/frames/TS_54_037_57_0_PS.mrc MotionCorr/job002/frames/TS_54_037_57_0_EVN.mrc MotionCorr/job002/frames/TS_54_037_57_0_ODD.mrc MotionCorr/job002/frames/TS_54_037_57_0.mrc MotionCorr/job002/frames/TS_54_037_57_0.star    11.211188     0.000000    11.211188 CtfFind/job003/frames/TS_54_037_57_0_PS.ctf:mrc 14907.949320 14912.608957    44.361328   156.438600     0.127873    10.539670     0.606530     -0.29142    56.878359    85.355441    -14.03545    -36.69510     0.652455 
frames/TS_54_040_60.0.mrc           10    59.997200    85.000000   120.000000     -1.50000 MotionCorr/job002/frames/TS_54_040_60_0_PS.mrc MotionCorr/job002/frames/TS_54_040_60_0_EVN.mrc MotionCorr/job002/frames/TS_54_040_60_0_ODD.mrc MotionCorr/job002/frames/TS_54_040_60_0.mrc MotionCorr/job002/frames/TS_54_040_60_0.star     9.814438     0.000000     9.814438 CtfFind/job003/frames/TS_54_040_60_0_PS.ctf:mrc 15630.284860 15866.309514    83.993164   -169.80782     0.177517    25.000000     0.672730     -0.48740    59.756978    85.233362    -28.41562    -53.08809     0.595940 
 
