# RELION postprocess; version 5.0-beta-2-commit-a0b145
# --mask mask_fsc.mrc --i Reconstruct/job052/half1.mrc --o PostProcess/job053/postprocess --angpix -1 --pipeline_control PostProcess/job053/ 

# version 50001

data_general

_rlnFinalResolution                               3.410526
_rlnBfactorUsedForSharpening                      0.000000
_rlnUnfilteredMapHalf1                        Reconstruct/job052/half1.mrc
_rlnUnfilteredMapHalf2                        Reconstruct/job052/half2.mrc
_rlnPostprocessedMap                          PostProcess/job053/postprocess.mrc
_rlnParticleBoxFractionSolventMask               10.682012
_rlnMaskName                                  mask_fsc.mrc
_rlnRandomiseFrom                                 7.005406
_rlnPostprocessedMapMasked                    PostProcess/job053/postprocess_masked.mrc
 

# version 50001

data_fsc

loop_ 
_rlnSpectralIndex #1 
_rlnResolution #2 
_rlnAngstromResolution #3 
_rlnFourierShellCorrelationCorrected #4 
_rlnFourierShellCorrelationParticleMaskFraction #5 
_rlnFourierShellCorrelationUnmaskedMaps #6 
_rlnFourierShellCorrelationMaskedMaps #7 
_rlnCorrectedFourierShellCorrelationPhaseRandomizedMaskedMaps #8 
           0     0.001001   999.000000     1.000000     1.000000     1.000000     1.000000     1.000000 
           1     0.003858   259.200012     0.999143     0.999959     0.999561     0.999143     0.999001 
           2     0.007716   129.600006     0.998308     0.999867     0.998580     0.998308     0.998169 
           3     0.011574    86.400004     0.999524     0.999990     0.999898     0.999524     0.999588 
           4     0.015432    64.800003     0.999847     0.999984     0.999826     0.999847     0.999856 
           5     0.019290    51.840002     0.999892     0.999973     0.999715     0.999892     0.999896 
           6     0.023148    43.200002     0.999841     0.999947     0.999429     0.999841     0.999836 
           7     0.027006    37.028573     0.999606     0.999888     0.998801     0.999606     0.999604 
           8     0.030864    32.400002     0.999134     0.999882     0.998737     0.999134     0.999201 
           9     0.034722    28.800001     0.998866     0.999795     0.997812     0.998866     0.998955 
          10     0.038580    25.920001     0.998279     0.999715     0.996968     0.998279     0.998281 
          11     0.042438    23.563637     0.997777     0.999588     0.995613     0.997777     0.997734 
          12     0.046296    21.600001     0.997353     0.999293     0.992499     0.997353     0.997278 
          13     0.050154    19.938462     0.996042     0.998682     0.986096     0.996042     0.995949 
          14     0.054012    18.514287     0.994232     0.999157     0.991072     0.994232     0.994261 
          15     0.057870    17.280001     0.994106     0.998660     0.985871     0.994106     0.994011 
          16     0.061728    16.200001     0.992770     0.998271     0.981835     0.992770     0.992887 
          17     0.065586    15.247060     0.992732     0.998689     0.986168     0.992732     0.993082 
          18     0.069444    14.400001     0.993311     0.998806     0.987390     0.993311     0.993486 
          19     0.073302    13.642106     0.992448     0.998507     0.984279     0.992448     0.992488 
          20     0.077160    12.960001     0.991300     0.997956     0.978591     0.991300     0.991129 
          21     0.081019    12.342858     0.991037     0.997603     0.974976     0.991037     0.990862 
          22     0.084877    11.781819     0.990812     0.997463     0.973547     0.990812     0.990848 
          23     0.088735    11.269566     0.991659     0.997756     0.976539     0.991659     0.991873 
          24     0.092593    10.800001     0.992056     0.998190     0.980995     0.992056     0.992225 
          25     0.096451    10.368000     0.989526     0.997934     0.978361     0.989526     0.989593 
          26     0.100309     9.969231     0.985868     0.995648     0.955392     0.985868     0.985712 
          27     0.104167     9.600000     0.984113     0.996619     0.965029     0.984113     0.983823 
          28     0.108025     9.257143     0.983806     0.996340     0.962240     0.983806     0.983241 
          29     0.111883     8.937931     0.980528     0.994133     0.940697     0.980528     0.979530 
          30     0.115741     8.640000     0.972915     0.991359     0.914823     0.972915     0.972658 
          31     0.119599     8.361291     0.968417     0.991492     0.916037     0.968417     0.970302 
          32     0.123457     8.100000     0.962343     0.990337     0.905608     0.962343     0.963653 
          33     0.127315     7.854546     0.953530     0.984917     0.859410     0.953530     0.952141 
          34     0.131173     7.623530     0.951662     0.986357     0.871270     0.951662     0.950617 
          35     0.135031     7.405715     0.948886     0.986157     0.869606     0.948886     0.949032 
          36     0.138889     7.200000     0.928935     0.978637     0.810910     0.928935     0.920629 
          37     0.142747     7.005406     0.901266     0.962314     0.705055     0.901266     0.832780 
          38     0.146605     6.821053     0.884544     0.956973     0.675546     0.884544     0.644442 
          39     0.150463     6.646154     0.788944     0.964291     0.716551     0.873631     0.401252 
          40     0.154321     6.480000     0.810807     0.960401     0.694235     0.871162     0.319012 
          41     0.158179     6.321952     0.819110     0.957901     0.680517     0.860117     0.226696 
          42     0.162037     6.171429     0.801504     0.949083     0.635696     0.841508     0.201536 
          43     0.165895     6.027907     0.810583     0.941254     0.599992     0.846439     0.189294 
          44     0.169753     5.890909     0.817368     0.946790     0.624871     0.838651     0.116536 
          45     0.173611     5.760000     0.801305     0.937377     0.583557     0.822412     0.106227 
          46     0.177469     5.634783     0.801233     0.935686     0.576627     0.816798     0.078306 
          47     0.181327     5.514894     0.804662     0.933805     0.569080     0.815348     0.054702 
          48     0.185185     5.400000     0.813324     0.938351     0.587614     0.823838     0.056325 
          49     0.189043     5.289796     0.836379     0.946967     0.625692     0.841126     0.029012 
          50     0.192901     5.184000     0.844108     0.946442     0.623254     0.847542     0.022032 
          51     0.196759     5.082353     0.845526     0.948903     0.634834     0.848929     0.022031 
          52     0.200617     4.984616     0.835725     0.940476     0.596630     0.838617     0.017609 
          53     0.204475     4.890566     0.814697     0.928760     0.549644     0.817512     0.015192 
          54     0.208333     4.800000     0.797853     0.927857     0.546282     0.801977     0.020400 
          55     0.212191     4.712727     0.790725     0.926085     0.539789     0.796897     0.029493 
          56     0.216049     4.628572     0.787878     0.917139     0.508884     0.792866     0.023514 
          57     0.219907     4.547369     0.781847     0.915779     0.504442     0.783613     0.008095 
          58     0.223765     4.468966     0.768679     0.902170     0.463318     0.772646     0.017147 
          59     0.227623     4.393221     0.740570     0.892395     0.437056     0.745520     0.019080 
          60     0.231481     4.320000     0.701673     0.869234     0.383585     0.705429     0.012589 
          61     0.235339     4.249181     0.676628     0.837634     0.325671     0.679174     0.007873 
          62     0.239198     4.180645     0.659479     0.827256     0.309542     0.658132     -0.00395 
          63     0.243056     4.114286     0.617521     0.828844     0.311931     0.617611 2.348196e-04 
          64     0.246914     4.050000     0.584037     0.786112     0.255991     0.586945     0.006991 
          65     0.250772     3.987692     0.547116     0.724077     0.197216     0.553962     0.015118 
          66     0.254630     3.927273     0.495950     0.704398     0.182391     0.509389     0.026661 
          67     0.258488     3.868657     0.471918     0.683843     0.168392     0.483743     0.022393 
          68     0.262346     3.811765     0.430494     0.628903     0.136928     0.444807     0.025132 
          69     0.266204     3.756522     0.398475     0.597903     0.122193     0.410883     0.020628 
          70     0.270062     3.702857     0.389456     0.587916     0.117824     0.396645     0.011775 
          71     0.273920     3.650704     0.370659     0.521273     0.092506     0.376246     0.008877 
          72     0.277778     3.600000     0.330059     0.440180     0.068562     0.336513     0.009633 
          73     0.281636     3.550685     0.267747     0.406631     0.060286     0.270812     0.004186 
          74     0.285494     3.502703     0.223552     0.381797     0.054656     0.223368 -2.36660e-04 
          75     0.289352     3.456000     0.211198     0.389515     0.056364     0.214042     0.003605 
          76     0.293210     3.410526     0.168105     0.254288     0.030935     0.175356     0.008716 
          77     0.297068     3.366234     0.116178     0.290342     0.036888     0.134115     0.020295 
          78     0.300926     3.323077     0.112718     -0.02995     -0.00273     0.130444     0.019978 
          79     0.304784     3.281013     0.094987     0.050702     0.004975     0.103558     0.009471 
          80     0.308642     3.240000     0.075430     0.012139     0.001149     0.076398     0.001047 
          81     0.312500     3.200000     0.079728     0.053013     0.005213     0.078958 -8.36226e-04 
          82     0.316358     3.160976     0.102710     -0.01606     -0.00148     0.095669     -0.00785 
          83     0.320216     3.122892     0.084758     0.066543     0.006629     0.076279     -0.00926 
          84     0.324074     3.085714     0.030439     -0.05616     -0.00500     0.029511 -9.57430e-04 
          85     0.327932     3.049412 6.945939e-04     0.263211     0.032361 -6.92605e-05 -7.64385e-04 
          86     0.331790     3.013954     0.004835     0.150664     0.016335 1.968230e-04     -0.00466 
          87     0.335648     2.979310     0.015515     -0.02553     -0.00234     0.007021     -0.00863 
          88     0.339506     2.945455     0.008949     0.097547     0.010018     0.008686 -2.64519e-04 
          89     0.343364     2.912360     -0.01555     0.005204 4.894394e-04     -0.00653     0.008879 
          90     0.347222     2.880000     -0.02708     -0.17995     -0.01448     -0.02002     0.006872 
          91     0.351080     2.848352     -0.02473     0.051488     0.005056     -0.01464     0.009845 
          92     0.354938     2.817391     -0.02900     -0.05237     -0.00468     -0.01662     0.012039 
          93     0.358796     2.787097     -0.04722     -0.12116     -0.01022     -0.03820     0.008609 
          94     0.362654     2.757447     -0.02208     -0.01404     -0.00130     -0.01734     0.004636 
          95     0.366512     2.728421     0.023657     0.179663     0.020091     0.027750     0.004192 
          96     0.370370     2.700000     0.045153     0.171934     0.019067     0.041764     -0.00355 
 

# version 50001

data_guinier

loop_ 
_rlnResolutionSquared #1 
_rlnLogAmplitudesOriginal #2 
_rlnLogAmplitudesWeighted #3 
    0.000000    -28.62903    -28.62903 
1.488435e-05     -4.81697     -4.81719 
5.953741e-05     -5.91678     -5.91720 
1.339592e-04     -6.03551     -6.03563 
2.381496e-04     -5.98616     -5.98620 
3.721088e-04     -6.39763     -6.39766 
5.358367e-04     -6.83452     -6.83456 
7.293333e-04     -7.12865     -7.12874 
9.525986e-04     -7.23586     -7.23607 
    0.001206     -7.45483     -7.45511 
    0.001488     -7.49082     -7.49125 
    0.001801     -7.71413     -7.71469 
    0.002143     -8.01846     -8.01912 
    0.002515     -8.17051     -8.17150 
    0.002917     -7.95046     -7.95190 
    0.003349     -8.01508     -8.01656 
    0.003810     -8.10464     -8.10646 
    0.004302     -8.16918     -8.17101 
    0.004823     -8.07480     -8.07648 
    0.005373     -8.05783     -8.05973 
    0.005954     -7.98146     -7.98365 
    0.006564     -8.00286     -8.00512 
    0.007204     -8.11171     -8.11403 
    0.007874     -8.06226     -8.06436 
    0.008573     -7.90861     -7.91061 
    0.009303     -7.93099     -7.93363 
    0.010062     -8.19019     -8.19376 
    0.010851     -8.12509     -8.12911 
    0.011669     -8.19334     -8.19744 
    0.012518     -8.34635     -8.35129 
    0.013396     -8.41564     -8.42256 
    0.014304     -8.46431     -8.47240 
    0.015242     -8.55409     -8.56378 
    0.016209     -8.65487     -8.66691 
    0.017206     -8.61663     -8.62917 
    0.018233     -8.63837     -8.65166 
    0.019290     -8.78201     -8.80078 
    0.020377     -8.91552     -8.94218 
    0.021493     -8.99743     -9.02904 
    0.022639     -8.90890     -8.97167 
    0.023815     -8.93013     -8.98531 
    0.025021     -8.94792     -9.00029 
    0.026256     -8.97764     -9.03601 
    0.027521     -9.02908     -9.08433 
    0.028816     -8.95895     -9.01190 
    0.030141     -8.97916     -9.03760 
    0.031495     -8.96918     -9.02764 
    0.032880     -8.95705     -9.01433 
    0.034294     -8.90226     -8.95658 
    0.035737     -8.83733     -8.88399 
    0.037211     -8.80948     -8.85364 
    0.038714     -8.78356     -8.82727 
    0.040247     -8.81748     -8.86435 
    0.041810     -8.85142     -8.90528 
    0.043403     -8.83954     -8.89917 
    0.045025     -8.81752     -8.87966 
    0.046677     -8.84090     -8.90405 
    0.048359     -8.83683     -8.90213 
    0.050071     -8.88349     -8.95357 
    0.051812     -8.92373     -9.00443 
    0.053584     -8.97667     -9.07304 
    0.055385     -9.03655     -9.14368 
    0.057215     -9.04372     -9.15855 
    0.059076     -9.04762     -9.18252 
    0.060966     -9.07800     -9.23031 
    0.062886     -9.14092     -9.31409 
    0.064836     -9.14738     -9.35283 
    0.066816     -9.16109     -9.38327 
    0.068825     -9.18456     -9.43840 
    0.070864     -9.18311     -9.46428 
    0.072933     -9.19049     -9.47987 
    0.075032     -9.21380     -9.52111 
    0.077160     -9.22366     -9.57394 
    0.079319     -9.24140     -9.67230 
    0.081507     -9.24426     -9.74763 
    0.083724     -9.25632     -9.78303 
    0.085972     -9.26139     -9.88409 
    0.088249     -9.27077    -10.05546 
    0.090556     -9.29937    -10.09764 
    0.092893     -9.28980    -10.16561 
    0.095260     -9.28920    -10.27126 
    0.097656     -9.28048    -10.23683 
    0.100082     -9.28171    -10.12195 
    0.102538     -9.26824    -10.19632 
    0.105024     -9.27449    -10.68893 
    0.107539     -9.25908    -12.54895 
    0.110085     -9.25281    -11.57463 
    0.112660     -9.25786    -11.00195 
    0.115264     -9.25432    -11.27033 
    0.117899     -9.24912    -99.00000 
    0.120563     -9.24642    -99.00000 
    0.123257     -9.23247    -99.00000 
    0.125981     -9.24219    -99.00000 
    0.128735     -9.23435    -99.00000 
    0.131518     -9.23043    -99.00000 
    0.134331     -9.22396    -99.00000 
    0.137174     -9.49416    -99.00000 
 
