# RELION postprocess; version 5.0-beta-2-commit-a0b145
# --mask mask_fsc.mrc --i Reconstruct/job042/half1.mrc --o PostProcess/job043/postprocess --angpix -1 --pipeline_control PostProcess/job043/ 

# version 50001

data_general

_rlnFinalResolution                               3.502703
_rlnBfactorUsedForSharpening                      0.000000
_rlnUnfilteredMapHalf1                        Reconstruct/job042/half1.mrc
_rlnUnfilteredMapHalf2                        Reconstruct/job042/half2.mrc
_rlnPostprocessedMap                          PostProcess/job043/postprocess.mrc
_rlnParticleBoxFractionSolventMask               10.682012
_rlnMaskName                                  mask_fsc.mrc
_rlnRandomiseFrom                                 7.005406
_rlnPostprocessedMapMasked                    PostProcess/job043/postprocess_masked.mrc
 

# version 50001

data_fsc

loop_ 
_rlnSpectralIndex #1 
_rlnResolution #2 
_rlnAngstromResolution #3 
_rlnFourierShellCorrelationCorrected #4 
_rlnFourierShellCorrelationParticleMaskFraction #5 
_rlnFourierShellCorrelationUnmaskedMaps #6 
_rlnFourierShellCorrelationMaskedMaps #7 
_rlnCorrectedFourierShellCorrelationPhaseRandomizedMaskedMaps #8 
           0     0.001001   999.000000     1.000000     1.000000     1.000000     1.000000     1.000000 
           1     0.003858   259.200012     0.998988     0.999955     0.999520     0.998988     0.998798 
           2     0.007716   129.600006     0.998063     0.999869     0.998598     0.998063     0.997868 
           3     0.011574    86.400004     0.999482     0.999991     0.999908     0.999482     0.999536 
           4     0.015432    64.800003     0.999825     0.999987     0.999864     0.999825     0.999832 
           5     0.019290    51.840002     0.999856     0.999974     0.999718     0.999856     0.999865 
           6     0.023148    43.200002     0.999809     0.999950     0.999470     0.999809     0.999828 
           7     0.027006    37.028573     0.999588     0.999907     0.999011     0.999588     0.999608 
           8     0.030864    32.400002     0.999110     0.999893     0.998856     0.999110     0.999191 
           9     0.034722    28.800001     0.998887     0.999818     0.998059     0.998887     0.998990 
          10     0.038580    25.920001     0.998530     0.999753     0.997372     0.998530     0.998497 
          11     0.042438    23.563637     0.998147     0.999611     0.995861     0.998147     0.998066 
          12     0.046296    21.600001     0.997719     0.999326     0.992842     0.997719     0.997659 
          13     0.050154    19.938462     0.996337     0.998720     0.986499     0.996337     0.996143 
          14     0.054012    18.514287     0.994251     0.999197     0.991490     0.994251     0.994176 
          15     0.057870    17.280001     0.994128     0.998740     0.986701     0.994128     0.993976 
          16     0.061728    16.200001     0.992980     0.998228     0.981387     0.992980     0.992952 
          17     0.065586    15.247060     0.992992     0.998677     0.986048     0.992992     0.993273 
          18     0.069444    14.400001     0.993542     0.998882     0.988187     0.993542     0.993734 
          19     0.073302    13.642106     0.992382     0.998605     0.985299     0.992382     0.992373 
          20     0.077160    12.960001     0.991022     0.998076     0.979820     0.991022     0.990761 
          21     0.081019    12.342858     0.990984     0.997809     0.977077     0.990984     0.990791 
          22     0.084877    11.781819     0.991246     0.997633     0.975279     0.991246     0.991308 
          23     0.088735    11.269566     0.992517     0.997964     0.978674     0.992517     0.992666 
          24     0.092593    10.800001     0.992631     0.998385     0.983013     0.992631     0.992750 
          25     0.096451    10.368000     0.989916     0.998150     0.980589     0.989916     0.989960 
          26     0.100309     9.969231     0.986080     0.995713     0.956033     0.986080     0.985989 
          27     0.104167     9.600000     0.984513     0.996845     0.967294     0.984513     0.984232 
          28     0.108025     9.257143     0.984239     0.996507     0.963904     0.984239     0.983702 
          29     0.111883     8.937931     0.981208     0.994134     0.940704     0.981208     0.980310 
          30     0.115741     8.640000     0.973639     0.991125     0.912698     0.973639     0.973228 
          31     0.119599     8.361291     0.968497     0.991471     0.915838     0.968497     0.970263 
          32     0.123457     8.100000     0.962810     0.990465     0.906754     0.962810     0.964177 
          33     0.127315     7.854546     0.953631     0.984448     0.855618     0.953631     0.952442 
          34     0.131173     7.623530     0.949572     0.985232     0.861979     0.949572     0.949924 
          35     0.135031     7.405715     0.946665     0.985336     0.862831     0.946665     0.948403 
          36     0.138889     7.200000     0.928107     0.977674     0.803899     0.928107     0.919934 
          37     0.142747     7.005406     0.899482     0.960363     0.694023     0.899482     0.831047 
          38     0.146605     6.821053     0.877251     0.954626     0.663251     0.877251     0.645229 
          39     0.150463     6.646154     0.772106     0.961570     0.700810     0.864995     0.407595 
          40     0.154321     6.480000     0.801124     0.953888     0.659468     0.866220     0.327317 
          41     0.158179     6.321952     0.804144     0.952789     0.653896     0.849620     0.232189 
          42     0.162037     6.171429     0.780841     0.944556     0.614623     0.826480     0.208245 
          43     0.165895     6.027907     0.791608     0.934617     0.572316     0.831618     0.191995 
          44     0.169753     5.890909     0.802436     0.940679     0.597506     0.825783     0.118172 
          45     0.173611     5.760000     0.789498     0.930042     0.554476     0.813076     0.112009 
          46     0.177469     5.634783     0.796142     0.931030     0.558250     0.814405     0.089588 
          47     0.181327     5.514894     0.794112     0.927901     0.546445     0.808397     0.069381 
          48     0.185185     5.400000     0.793845     0.931057     0.558354     0.806777     0.062733 
          49     0.189043     5.289796     0.818588     0.941457     0.600875     0.824007     0.029871 
          50     0.192901     5.184000     0.825704     0.938578     0.588567     0.831469     0.033076 
          51     0.196759     5.082353     0.822200     0.940988     0.598838     0.828584     0.035905 
          52     0.200617     4.984616     0.812839     0.930285     0.555400     0.817231     0.023467 
          53     0.204475     4.890566     0.790917     0.917608     0.510428     0.794599     0.017607 
          54     0.208333     4.800000     0.766389     0.918538     0.513517     0.772083     0.024375 
          55     0.212191     4.712727     0.754168     0.916136     0.505600     0.762936     0.035668 
          56     0.216049     4.628572     0.750357     0.899162     0.454970     0.758286     0.031763 
          57     0.219907     4.547369     0.745604     0.898945     0.454377     0.750314     0.018514 
          58     0.223765     4.468966     0.730989     0.880294     0.407733     0.736215     0.019426 
          59     0.227623     4.393221     0.693852     0.862223     0.369425     0.700361     0.021262 
          60     0.231481     4.320000     0.648970     0.845018     0.337935     0.656566     0.021638 
          61     0.235339     4.249181     0.628984     0.806101     0.280156     0.633557     0.012328 
          62     0.239198     4.180645     0.618264     0.801795     0.274679     0.617739     -0.00138 
          63     0.243056     4.114286     0.573769     0.786445     0.256367     0.576694     0.006863 
          64     0.246914     4.050000     0.532943     0.731736     0.203410     0.538532     0.011968 
          65     0.250772     3.987692     0.488494     0.643294     0.144443     0.494433     0.011610 
          66     0.254630     3.927273     0.431422     0.616284     0.130703     0.439658     0.014486 
          67     0.258488     3.868657     0.413402     0.645974     0.145894     0.419102     0.009716 
          68     0.262346     3.811765     0.378100     0.604739     0.125285     0.386191     0.013011 
          69     0.266204     3.756522     0.352646     0.523339     0.093203     0.358769     0.009458 
          70     0.270062     3.702857     0.340750     0.538471     0.098467     0.343389     0.004003 
          71     0.273920     3.650704     0.292997     0.492553     0.083298     0.301145     0.011526 
          72     0.277778     3.600000     0.245145     0.450227     0.071206     0.260302     0.020079 
          73     0.281636     3.550685     0.199323     0.352359     0.048464     0.208942     0.012013 
          74     0.285494     3.502703     0.156920     0.291551     0.037097     0.161283     0.005175 
          75     0.289352     3.456000     0.131686     0.293433     0.037423     0.137277     0.006439 
          76     0.293210     3.410526     0.107588     0.211692     0.024523     0.112045     0.004994 
          77     0.297068     3.366234     0.071783     0.139705     0.014975     0.091131     0.020845 
          78     0.300926     3.323077     0.072694     0.013639     0.001293     0.097767     0.027039 
          79     0.304784     3.281013     0.065246     0.171539     0.019015     0.087452     0.023757 
          80     0.308642     3.240000     0.035996     0.111140     0.011570     0.051187     0.015759 
          81     0.312500     3.200000     0.005884     -0.01796     -0.00165     0.016372     0.010550 
          82     0.316358     3.160976     0.033424     0.083767     0.008486     0.029592     -0.00396 
          83     0.320216     3.122892     0.065112     0.221230     0.025905     0.053849     -0.01205 
          84     0.324074     3.085714     0.049587     -0.04820     -0.00432     0.044917     -0.00491 
          85     0.327932     3.049412     -0.00863     -0.02684     -0.00245     -0.00290     0.005681 
          86     0.331790     3.013954     -0.05030     -0.04809     -0.00431     -0.04087     0.008980 
          87     0.335648     2.979310     -0.03968     0.078293     0.007889     -0.03581     0.003731 
          88     0.339506     2.945455     -0.01395     -0.01023 -9.48578e-04     -0.00933     0.004557 
          89     0.343364     2.912360     -0.00699     -0.02727     -0.00249     0.007119     0.014013 
          90     0.347222     2.880000     -0.02716     0.003586 3.367774e-04     -0.00909     0.017595 
          91     0.351080     2.848352     -0.02563     0.048059     0.004704     -0.00521     0.019910 
          92     0.354938     2.817391 -9.91704e-04     0.060831     0.006027     0.016858     0.017832 
          93     0.358796     2.787097     0.007750     -0.14644     -0.01210     0.020357     0.012706 
          94     0.362654     2.757447     0.018427     -0.08451     -0.00735     0.019284 8.724782e-04 
          95     0.366512     2.728421     0.032668     0.073389     0.007360     0.033923     0.001298 
          96     0.370370     2.700000     0.037986     0.046150     0.004509     0.038081 9.834318e-05 
 

# version 50001

data_guinier

loop_ 
_rlnResolutionSquared #1 
_rlnLogAmplitudesOriginal #2 
_rlnLogAmplitudesWeighted #3 
    0.000000    -25.54557    -25.54557 
1.488435e-05     -4.76248     -4.76273 
5.953741e-05     -5.86171     -5.86219 
1.339592e-04     -5.98057     -5.98070 
2.381496e-04     -5.93162     -5.93167 
3.721088e-04     -6.34247     -6.34251 
5.358367e-04     -6.78093     -6.78098 
7.293333e-04     -7.07932     -7.07943 
9.525986e-04     -7.18501     -7.18523 
    0.001206     -7.40355     -7.40383 
    0.001488     -7.43790     -7.43827 
    0.001801     -7.66193     -7.66239 
    0.002143     -7.96714     -7.96771 
    0.002515     -8.12196     -8.12288 
    0.002917     -7.90568     -7.90712 
    0.003349     -7.97250     -7.97397 
    0.003810     -8.05559     -8.05735 
    0.004302     -8.12401     -8.12577 
    0.004823     -8.03225     -8.03388 
    0.005373     -8.01179     -8.01371 
    0.005954     -7.93965     -7.94191 
    0.006564     -7.96945     -7.97172 
    0.007204     -8.07244     -8.07465 
    0.007874     -8.02384     -8.02573 
    0.008573     -7.87135     -7.87320 
    0.009303     -7.89184     -7.89438 
    0.010062     -8.16210     -8.16561 
    0.010851     -8.08784     -8.09176 
    0.011669     -8.15512     -8.15911 
    0.012518     -8.31431     -8.31907 
    0.013396     -8.38454     -8.39126 
    0.014304     -8.43223     -8.44030 
    0.015242     -8.51699     -8.52655 
    0.016209     -8.62584     -8.63786 
    0.017206     -8.59517     -8.60828 
    0.018233     -8.61048     -8.62437 
    0.019290     -8.75734     -8.77634 
    0.020377     -8.89815     -8.92534 
    0.021493     -8.97684     -9.01065 
    0.022639     -8.89334     -8.96217 
    0.023815     -8.92738     -8.98588 
    0.025021     -8.93297     -8.99043 
    0.026256     -8.96702     -9.03268 
    0.027521     -9.02070     -9.08253 
    0.028816     -8.96309     -9.02114 
    0.030141     -8.98484     -9.04741 
    0.031495     -8.96218     -9.02242 
    0.032880     -8.96338     -9.02433 
    0.034294     -8.91163     -8.97267 
    0.035737     -8.84978     -8.90232 
    0.037211     -8.82822     -8.87839 
    0.038714     -8.79323     -8.84457 
    0.040247     -8.83945     -8.89393 
    0.041810     -8.87662     -8.93869 
    0.043403     -8.85698     -8.92791 
    0.045025     -8.84105     -8.91654 
    0.046677     -8.87947     -8.95641 
    0.048359     -8.87581     -8.95456 
    0.050071     -8.92012     -9.00457 
    0.051812     -8.96875     -9.06843 
    0.053584     -9.01874     -9.13843 
    0.055385     -9.07220     -9.20143 
    0.057215     -9.07863     -9.21316 
    0.059076     -9.07737     -9.23530 
    0.060966     -9.10075     -9.28244 
    0.062886     -9.17008     -9.38061 
    0.064836     -9.18047     -9.43357 
    0.066816     -9.17166     -9.43975 
    0.068825     -9.18911     -9.48919 
    0.070864     -9.18410     -9.50970 
    0.072933     -9.18984     -9.52818 
    0.075032     -9.19185     -9.58756 
    0.077160     -9.20940     -9.67541 
    0.079319     -9.22575     -9.77647 
    0.081507     -9.24373     -9.89604 
    0.083724     -9.25068     -9.97963 
    0.085972     -9.24845    -10.06769 
    0.088249     -9.25868    -10.26383 
    0.090556     -9.26949    -10.26875 
    0.092893     -9.24328    -10.29311 
    0.095260     -9.24456    -10.57784 
    0.097656     -9.25195    -11.47609 
    0.100082     -9.25423    -10.62333 
    0.102538     -9.22609    -10.27688 
    0.105024     -9.23763    -10.41727 
    0.107539     -9.23550    -99.00000 
    0.110085     -9.23076    -99.00000 
    0.112660     -9.22375    -99.00000 
    0.115264     -9.21760    -99.00000 
    0.117899     -9.20570    -99.00000 
    0.120563     -9.20554    -99.00000 
    0.123257     -9.19996    -99.00000 
    0.125981     -9.19218    -99.00000 
    0.128735     -9.19401    -99.00000 
    0.131518     -9.19926    -99.00000 
    0.134331     -9.19578    -99.00000 
    0.137174     -9.47028    -99.00000 
 
