# Created by the starfile Python package (version 0.4.12) at 11:53:14 on 15/03/2024

data_TS_01

loop_
_rlnMicrographMovieName #1
_rlnTomoTiltMovieFrameCount #2
_rlnTomoNominalStageTiltAngle #3
_rlnTomoNominalTiltAxisAngle #4
_rlnMicrographPreExposure #5
_rlnTomoNominalDefocus #6
frames/TS_01_000_0.0.mrc	8	0.001000	85.000000	0.000000	-4.000000
frames/TS_01_001_3.0.mrc	8	3.001130	85.000000	3.000000	-4.000000
frames/TS_01_002_-3.0.mrc	8	-2.998630	85.000000	6.000000	-4.000000
frames/TS_01_003_-6.0.mrc	8	-5.998760	85.000000	9.000000	-4.000000
frames/TS_01_004_6.0.mrc	8	6.001260	85.000000	12.000000	-4.000000
frames/TS_01_005_9.0.mrc	8	9.001400	85.000000	15.000000	-4.000000
frames/TS_01_006_-9.0.mrc	8	-8.998900	85.000000	18.000000	-4.000000
frames/TS_01_007_-12.0.mrc	8	-11.998500	85.000000	21.000000	-4.000000
frames/TS_01_008_12.0.mrc	8	12.000500	85.000000	24.000000	-4.000000
frames/TS_01_009_15.0.mrc	8	15.000700	85.000000	27.000000	-4.000000
frames/TS_01_010_-15.0.mrc	8	-14.998700	85.000000	30.000000	-4.000000
frames/TS_01_011_-18.0.mrc	8	-17.998800	85.000000	33.000000	-4.000000
frames/TS_01_012_18.0.mrc	8	18.000800	85.000000	36.000000	-4.000000
frames/TS_01_013_21.0.mrc	8	21.000900	85.000000	39.000000	-4.000000
frames/TS_01_014_-21.0.mrc	8	-20.998900	85.000000	42.000000	-4.000000
frames/TS_01_015_-24.0.mrc	8	-23.998600	85.000000	45.000000	-4.000000
frames/TS_01_016_24.0.mrc	8	24.000600	85.000000	48.000000	-4.000000
frames/TS_01_017_27.0.mrc	8	27.000700	85.000000	51.000000	-4.000000
frames/TS_01_018_-27.0.mrc	8	-26.999200	85.000000	54.000000	-4.000000
frames/TS_01_019_-30.0.mrc	8	-29.998800	85.000000	57.000000	-4.000000
frames/TS_01_020_30.0.mrc	8	30.000800	85.000000	60.000000	-4.000000
frames/TS_01_021_33.0.mrc	8	33.001000	85.000000	63.000000	-4.000000
frames/TS_01_022_-33.0.mrc	8	-32.999000	85.000000	66.000000	-4.000000
frames/TS_01_023_-36.0.mrc	8	-35.998600	85.000000	69.000000	-4.000000
frames/TS_01_024_36.0.mrc	8	36.000600	85.000000	72.000000	-4.000000
frames/TS_01_025_39.0.mrc	8	39.000700	85.000000	75.000000	-4.000000
frames/TS_01_026_-39.0.mrc	8	-38.998700	85.000000	78.000000	-4.000000
frames/TS_01_027_-42.0.mrc	8	-41.998900	85.000000	81.000000	-4.000000
frames/TS_01_028_42.0.mrc	8	42.000900	85.000000	84.000000	-4.000000
frames/TS_01_029_45.0.mrc	8	45.001000	85.000000	87.000000	-4.000000
frames/TS_01_030_-45.0.mrc	8	-44.999000	85.000000	90.000000	-4.000000
frames/TS_01_031_-48.0.mrc	8	-47.998600	85.000000	93.000000	-4.000000
frames/TS_01_032_48.0.mrc	8	48.000600	85.000000	96.000000	-4.000000
frames/TS_01_033_51.0.mrc	8	51.000800	85.000000	99.000000	-4.000000
frames/TS_01_034_-51.0.mrc	8	-50.998800	85.000000	102.000000	-4.000000
frames/TS_01_035_-54.0.mrc	8	-53.998900	85.000000	105.000000	-4.000000
frames/TS_01_036_54.0.mrc	8	54.000900	85.000000	108.000000	-4.000000
frames/TS_01_037_57.0.mrc	8	57.000000	85.000000	111.000000	-4.000000
frames/TS_01_038_-57.0.mrc	8	-56.998500	85.000000	114.000000	-4.000000
frames/TS_01_039_-60.0.mrc	8	-59.998600	85.000000	117.000000	-4.000000
frames/TS_01_040_60.0.mrc	8	60.000600	85.000000	120.000000	-4.000000


