# Created by the starfile Python package (version 0.4.12) at 11:53:14 on 15/03/2024

data_TS_03

loop_
_rlnMicrographMovieName #1
_rlnTomoTiltMovieFrameCount #2
_rlnTomoNominalStageTiltAngle #3
_rlnTomoNominalTiltAxisAngle #4
_rlnMicrographPreExposure #5
_rlnTomoNominalDefocus #6
frames/TS_03_000_0.0.mrc	8	0.001500	85.000000	0.000000	-1.500000
frames/TS_03_001_3.0.mrc	8	3.001130	85.000000	3.000000	-1.500000
frames/TS_03_002_-3.0.mrc	8	-2.998630	85.000000	6.000000	-1.500000
frames/TS_03_003_-6.0.mrc	8	-5.998270	85.000000	9.000000	-1.500000
frames/TS_03_004_6.0.mrc	8	6.000760	85.000000	12.000000	-1.500000
frames/TS_03_005_9.0.mrc	8	9.001400	85.000000	15.000000	-1.500000
frames/TS_03_006_-9.0.mrc	8	-8.998900	85.000000	18.000000	-1.500000
frames/TS_03_007_-12.0.mrc	8	-11.998000	85.000000	21.000000	-1.500000
frames/TS_03_008_12.0.mrc	8	12.000500	85.000000	24.000000	-1.500000
frames/TS_03_009_15.0.mrc	8	15.000700	85.000000	27.000000	-1.500000
frames/TS_03_010_-15.0.mrc	8	-14.999200	85.000000	30.000000	-1.500000
frames/TS_03_011_-18.0.mrc	8	-17.998800	85.000000	33.000000	-1.500000
frames/TS_03_012_18.0.mrc	8	18.000300	85.000000	36.000000	-1.500000
frames/TS_03_013_21.0.mrc	8	21.000900	85.000000	39.000000	-1.500000
frames/TS_03_014_-21.0.mrc	8	-20.998900	85.000000	42.000000	-1.500000
frames/TS_03_015_-24.0.mrc	8	-23.998600	85.000000	45.000000	-1.500000
frames/TS_03_016_24.0.mrc	8	24.000600	85.000000	48.000000	-1.500000
frames/TS_03_017_27.0.mrc	8	27.000700	85.000000	51.000000	-1.500000
frames/TS_03_018_-27.0.mrc	8	-26.998700	85.000000	54.000000	-1.500000
frames/TS_03_019_-30.0.mrc	8	-29.999300	85.000000	57.000000	-1.500000
frames/TS_03_020_30.0.mrc	8	30.000800	85.000000	60.000000	-1.500000
frames/TS_03_021_33.0.mrc	8	33.001000	85.000000	63.000000	-1.500000
frames/TS_03_022_-33.0.mrc	8	-32.999000	85.000000	66.000000	-1.500000
frames/TS_03_023_-36.0.mrc	8	-35.998600	85.000000	69.000000	-1.500000
frames/TS_03_024_36.0.mrc	8	36.000600	85.000000	72.000000	-1.500000
frames/TS_03_025_39.0.mrc	8	39.000700	85.000000	75.000000	-1.500000
frames/TS_03_026_-39.0.mrc	8	-38.998700	85.000000	78.000000	-1.500000
frames/TS_03_027_-42.0.mrc	8	-41.999400	85.000000	81.000000	-1.500000
frames/TS_03_028_42.0.mrc	8	42.000900	85.000000	84.000000	-1.500000
frames/TS_03_029_45.0.mrc	8	45.000500	85.000000	87.000000	-1.500000
frames/TS_03_030_-45.0.mrc	8	-44.999000	85.000000	90.000000	-1.500000
frames/TS_03_031_-48.0.mrc	8	-47.999100	85.000000	93.000000	-1.500000
frames/TS_03_032_48.0.mrc	8	47.999600	85.000000	96.000000	-1.500000
frames/TS_03_033_51.0.mrc	8	50.999800	85.000000	99.000000	-1.500000
frames/TS_03_034_-51.0.mrc	8	-50.999300	85.000000	102.000000	-1.500000
frames/TS_03_035_-54.0.mrc	8	-53.998900	85.000000	105.000000	-1.500000
frames/TS_03_036_54.0.mrc	8	53.996900	85.000000	108.000000	-1.500000
frames/TS_03_037_57.0.mrc	8	56.996000	85.000000	111.000000	-1.500000
frames/TS_03_038_-57.0.mrc	8	-56.999000	85.000000	114.000000	-1.500000
frames/TS_03_039_-60.0.mrc	8	-59.999100	85.000000	117.000000	-1.500000
frames/TS_03_040_60.0.mrc	8	59.998100	85.000000	120.000000	-1.500000


