# Created by the starfile Python package (version 0.4.12) at 11:53:15 on 15/03/2024

data_TS_43

loop_
_rlnMicrographMovieName #1
_rlnTomoTiltMovieFrameCount #2
_rlnTomoNominalStageTiltAngle #3
_rlnTomoNominalTiltAxisAngle #4
_rlnMicrographPreExposure #5
_rlnTomoNominalDefocus #6
frames/TS_43_000_0.0.mrc	10	0.000000	85.000000	0.000000	-2.500000
frames/TS_43_001_3.0.mrc	10	3.000130	85.000000	3.000000	-2.500000
frames/TS_43_002_-3.0.mrc	10	-2.999130	85.000000	6.000000	-2.500000
frames/TS_43_003_-6.0.mrc	10	-5.999270	85.000000	9.000000	-2.500000
frames/TS_43_004_6.0.mrc	10	5.999270	85.000000	12.000000	-2.500000
frames/TS_43_005_9.0.mrc	10	8.998400	85.000000	15.000000	-2.500000
frames/TS_43_006_-9.0.mrc	10	-8.998900	85.000000	18.000000	-2.500000
frames/TS_43_007_-12.0.mrc	10	-11.999000	85.000000	21.000000	-2.500000
frames/TS_43_008_12.0.mrc	10	11.999000	85.000000	24.000000	-2.500000
frames/TS_43_009_15.0.mrc	10	15.000200	85.000000	27.000000	-2.500000
frames/TS_43_010_-15.0.mrc	10	-15.003700	85.000000	30.000000	-2.500000
frames/TS_43_011_-18.0.mrc	10	-18.003300	85.000000	33.000000	-2.500000
frames/TS_43_012_18.0.mrc	10	18.000800	85.000000	36.000000	-2.500000
frames/TS_43_013_21.0.mrc	10	20.999900	85.000000	39.000000	-2.500000
frames/TS_43_014_-21.0.mrc	10	-21.001400	85.000000	42.000000	-2.500000
frames/TS_43_015_-24.0.mrc	10	-24.000600	85.000000	45.000000	-2.500000
frames/TS_43_016_24.0.mrc	10	23.999600	85.000000	48.000000	-2.500000
frames/TS_43_017_27.0.mrc	10	26.999700	85.000000	51.000000	-2.500000
frames/TS_43_018_-27.0.mrc	10	-27.000700	85.000000	54.000000	-2.500000
frames/TS_43_019_-30.0.mrc	10	-29.999800	85.000000	57.000000	-2.500000
frames/TS_43_020_30.0.mrc	10	29.999800	85.000000	60.000000	-2.500000
frames/TS_43_021_33.0.mrc	10	33.000000	85.000000	63.000000	-2.500000
frames/TS_43_022_-33.0.mrc	10	-33.000000	85.000000	66.000000	-2.500000
frames/TS_43_023_-36.0.mrc	10	-36.000100	85.000000	69.000000	-2.500000
frames/TS_43_024_36.0.mrc	10	35.999600	85.000000	72.000000	-2.500000
frames/TS_43_025_39.0.mrc	10	38.999200	85.000000	75.000000	-2.500000
frames/TS_43_026_-39.0.mrc	10	-38.999700	85.000000	78.000000	-2.500000
frames/TS_43_027_-42.0.mrc	10	-41.999400	85.000000	81.000000	-2.500000
frames/TS_43_028_42.0.mrc	10	41.999400	85.000000	84.000000	-2.500000
frames/TS_43_029_45.0.mrc	10	44.999000	85.000000	87.000000	-2.500000
frames/TS_43_030_-45.0.mrc	10	-45.000000	85.000000	90.000000	-2.500000
frames/TS_43_031_-48.0.mrc	10	-47.999100	85.000000	93.000000	-2.500000
frames/TS_43_032_48.0.mrc	10	47.997100	85.000000	96.000000	-2.500000
frames/TS_43_033_51.0.mrc	10	50.996300	85.000000	99.000000	-2.500000
frames/TS_43_034_-51.0.mrc	10	-51.000300	85.000000	102.000000	-2.500000
frames/TS_43_035_-54.0.mrc	10	-53.999400	85.000000	105.000000	-2.500000
frames/TS_43_036_54.0.mrc	10	53.996900	85.000000	108.000000	-2.500000
frames/TS_43_037_57.0.mrc	10	56.996000	85.000000	111.000000	-2.500000
frames/TS_43_038_-57.0.mrc	10	-56.999000	85.000000	114.000000	-2.500000
frames/TS_43_039_-60.0.mrc	10	-59.999100	85.000000	117.000000	-2.500000
frames/TS_43_040_60.0.mrc	10	59.996200	85.000000	120.000000	-2.500000


