# Created by the starfile Python package (version 0.4.12) at 11:53:16 on 15/03/2024

data_TS_54

loop_
_rlnMicrographMovieName #1
_rlnTomoTiltMovieFrameCount #2
_rlnTomoNominalStageTiltAngle #3
_rlnTomoNominalTiltAxisAngle #4
_rlnMicrographPreExposure #5
_rlnTomoNominalDefocus #6
frames/TS_54_000_-0.0.mrc	10	-0.000500	85.000000	0.000000	-1.500000
frames/TS_54_001_3.0.mrc	10	2.999630	85.000000	3.000000	-1.500000
frames/TS_54_002_-3.0.mrc	10	-2.999630	85.000000	6.000000	-1.500000
frames/TS_54_003_-6.0.mrc	10	-5.998760	85.000000	9.000000	-1.500000
frames/TS_54_004_6.0.mrc	10	5.999760	85.000000	12.000000	-1.500000
frames/TS_54_005_9.0.mrc	10	8.999400	85.000000	15.000000	-1.500000
frames/TS_54_006_-9.0.mrc	10	-8.999400	85.000000	18.000000	-1.500000
frames/TS_54_007_-12.0.mrc	10	-11.998500	85.000000	21.000000	-1.500000
frames/TS_54_008_12.0.mrc	10	12.000500	85.000000	24.000000	-1.500000
frames/TS_54_009_15.0.mrc	10	15.000200	85.000000	27.000000	-1.500000
frames/TS_54_010_-15.0.mrc	10	-15.003200	85.000000	30.000000	-1.500000
frames/TS_54_011_-18.0.mrc	10	-18.001800	85.000000	33.000000	-1.500000
frames/TS_54_012_18.0.mrc	10	18.000800	85.000000	36.000000	-1.500000
frames/TS_54_013_21.0.mrc	10	21.000400	85.000000	39.000000	-1.500000
frames/TS_54_014_-21.0.mrc	10	-21.000400	85.000000	42.000000	-1.500000
frames/TS_54_015_-24.0.mrc	10	-24.000100	85.000000	45.000000	-1.500000
frames/TS_54_016_24.0.mrc	10	24.000100	85.000000	48.000000	-1.500000
frames/TS_54_017_27.0.mrc	10	26.999700	85.000000	51.000000	-1.500000
frames/TS_54_018_-27.0.mrc	10	-27.001700	85.000000	54.000000	-1.500000
frames/TS_54_019_-30.0.mrc	10	-30.000300	85.000000	57.000000	-1.500000
frames/TS_54_020_30.0.mrc	10	29.999300	85.000000	60.000000	-1.500000
frames/TS_54_021_33.0.mrc	10	32.999500	85.000000	63.000000	-1.500000
frames/TS_54_022_-33.0.mrc	10	-32.999500	85.000000	66.000000	-1.500000
frames/TS_54_023_-36.0.mrc	10	-36.000100	85.000000	69.000000	-1.500000
frames/TS_54_024_36.0.mrc	10	36.000100	85.000000	72.000000	-1.500000
frames/TS_54_025_39.0.mrc	10	38.999200	85.000000	75.000000	-1.500000
frames/TS_54_026_-39.0.mrc	10	-39.000200	85.000000	78.000000	-1.500000
frames/TS_54_027_-42.0.mrc	10	-42.000400	85.000000	81.000000	-1.500000
frames/TS_54_028_42.0.mrc	10	41.996900	85.000000	84.000000	-1.500000
frames/TS_54_029_45.0.mrc	10	44.997500	85.000000	87.000000	-1.500000
frames/TS_54_030_-45.0.mrc	10	-45.000000	85.000000	90.000000	-1.500000
frames/TS_54_031_-48.0.mrc	10	-47.999600	85.000000	93.000000	-1.500000
frames/TS_54_032_48.0.mrc	10	47.998100	85.000000	96.000000	-1.500000
frames/TS_54_033_51.0.mrc	10	50.996300	85.000000	99.000000	-1.500000
frames/TS_54_034_-51.0.mrc	10	-50.999300	85.000000	102.000000	-1.500000
frames/TS_54_035_-54.0.mrc	10	-53.999400	85.000000	105.000000	-1.500000
frames/TS_54_036_54.0.mrc	10	53.997400	85.000000	108.000000	-1.500000
frames/TS_54_037_57.0.mrc	10	56.996500	85.000000	111.000000	-1.500000
frames/TS_54_038_-57.0.mrc	10	-56.999000	85.000000	114.000000	-1.500000
frames/TS_54_039_-60.0.mrc	10	-59.999100	85.000000	117.000000	-1.500000
frames/TS_54_040_60.0.mrc	10	59.997200	85.000000	120.000000	-1.500000


