# RELION postprocess; version 5.0-beta-2-commit-a0b145
# --mask mask_fsc.mrc --i Reconstruct/job075/half1.mrc --o PostProcess/job076/postprocess --angpix -1 --pipeline_control PostProcess/job076/ 

# version 50001

data_general

_rlnFinalResolution                               3.323077
_rlnBfactorUsedForSharpening                      0.000000
_rlnUnfilteredMapHalf1                        Reconstruct/job075/half1.mrc
_rlnUnfilteredMapHalf2                        Reconstruct/job075/half2.mrc
_rlnPostprocessedMap                          PostProcess/job076/postprocess.mrc
_rlnParticleBoxFractionSolventMask               10.682012
_rlnMaskName                                  mask_fsc.mrc
_rlnRandomiseFrom                                 7.005406
_rlnPostprocessedMapMasked                    PostProcess/job076/postprocess_masked.mrc
 

# version 50001

data_fsc

loop_ 
_rlnSpectralIndex #1 
_rlnResolution #2 
_rlnAngstromResolution #3 
_rlnFourierShellCorrelationCorrected #4 
_rlnFourierShellCorrelationParticleMaskFraction #5 
_rlnFourierShellCorrelationUnmaskedMaps #6 
_rlnFourierShellCorrelationMaskedMaps #7 
_rlnCorrectedFourierShellCorrelationPhaseRandomizedMaskedMaps #8 
           0     0.001001   999.000000     1.000000     1.000000     1.000000     1.000000     1.000000 
           1     0.003858   259.200012     0.999061     0.999959     0.999561     0.999061     0.998875 
           2     0.007716   129.600006     0.998190     0.999866     0.998575     0.998190     0.998021 
           3     0.011574    86.400004     0.999516     0.999988     0.999867     0.999516     0.999589 
           4     0.015432    64.800003     0.999828     0.999979     0.999777     0.999828     0.999833 
           5     0.019290    51.840002     0.999872     0.999965     0.999629     0.999872     0.999878 
           6     0.023148    43.200002     0.999801     0.999934     0.999295     0.999801     0.999798 
           7     0.027006    37.028573     0.999533     0.999854     0.998445     0.999533     0.999532 
           8     0.030864    32.400002     0.999037     0.999845     0.998342     0.999037     0.999074 
           9     0.034722    28.800001     0.998623     0.999760     0.997438     0.998623     0.998644 
          10     0.038580    25.920001     0.997969     0.999657     0.996350     0.997969     0.997926 
          11     0.042438    23.563637     0.997700     0.999510     0.994791     0.997700     0.997590 
          12     0.046296    21.600001     0.997429     0.999209     0.991613     0.997429     0.997319 
          13     0.050154    19.938462     0.996050     0.998600     0.985246     0.996050     0.995883 
          14     0.054012    18.514287     0.994302     0.999071     0.990165     0.994302     0.994164 
          15     0.057870    17.280001     0.994089     0.998631     0.985573     0.994089     0.993980 
          16     0.061728    16.200001     0.992250     0.998165     0.980741     0.992250     0.992466 
          17     0.065586    15.247060     0.991658     0.998566     0.984892     0.991658     0.992255 
          18     0.069444    14.400001     0.992263     0.998659     0.985858     0.992263     0.992560 
          19     0.073302    13.642106     0.991138     0.998290     0.982026     0.991138     0.991057 
          20     0.077160    12.960001     0.989942     0.997673     0.975695     0.989942     0.989713 
          21     0.081019    12.342858     0.990228     0.997482     0.973741     0.990228     0.989977 
          22     0.084877    11.781819     0.990018     0.997324     0.972137     0.990018     0.989944 
          23     0.088735    11.269566     0.990659     0.997559     0.974531     0.990659     0.990909 
          24     0.092593    10.800001     0.991031     0.997925     0.978267     0.991031     0.991385 
          25     0.096451    10.368000     0.988489     0.997630     0.975250     0.988489     0.988811 
          26     0.100309     9.969231     0.985118     0.995133     0.950351     0.985118     0.985064 
          27     0.104167     9.600000     0.983322     0.996356     0.962406     0.983322     0.982977 
          28     0.108025     9.257143     0.982267     0.995917     0.958042     0.982267     0.981737 
          29     0.111883     8.937931     0.979032     0.993661     0.936205     0.979032     0.977990 
          30     0.115741     8.640000     0.972386     0.991027     0.911808     0.972386     0.971910 
          31     0.119599     8.361291     0.968638     0.990929     0.910923     0.968638     0.970281 
          32     0.123457     8.100000     0.963132     0.989826     0.901063     0.963132     0.964757 
          33     0.127315     7.854546     0.952840     0.984214     0.853733     0.952840     0.952052 
          34     0.131173     7.623530     0.949577     0.985630     0.865246     0.949577     0.949104 
          35     0.135031     7.405715     0.946382     0.985346     0.862915     0.946382     0.946512 
          36     0.138889     7.200000     0.924934     0.978031     0.806489     0.924934     0.916816 
          37     0.142747     7.005406     0.897946     0.961067     0.697971     0.897946     0.829505 
          38     0.146605     6.821053     0.888437     0.958888     0.685875     0.888437     0.643490 
          39     0.150463     6.646154     0.801869     0.965482     0.723640     0.881088     0.399832 
          40     0.154321     6.480000     0.825366     0.960270     0.693500     0.880613     0.316360 
          41     0.158179     6.321952     0.830032     0.959208     0.687630     0.869468     0.232018 
          42     0.162037     6.171429     0.809432     0.951073     0.645358     0.848883     0.207016 
          43     0.165895     6.027907     0.817518     0.944754     0.615518     0.852375     0.191018 
          44     0.169753     5.890909     0.824355     0.947937     0.630244     0.845917     0.122759 
          45     0.173611     5.760000     0.809485     0.940783     0.597953     0.830625     0.110962 
          46     0.177469     5.634783     0.810081     0.939560     0.592714     0.824816     0.077585 
          47     0.181327     5.514894     0.821046     0.937133     0.582550     0.829619     0.047908 
          48     0.185185     5.400000     0.828857     0.942173     0.604005     0.838146     0.054276 
          49     0.189043     5.289796     0.842934     0.949590     0.638136     0.848160     0.033275 
          50     0.192901     5.184000     0.849147     0.950090     0.640555     0.852828     0.024400 
          51     0.196759     5.082353     0.848239     0.951109     0.645534     0.850498     0.014885 
          52     0.200617     4.984616     0.843551     0.945993     0.621178     0.844523     0.006216 
          53     0.204475     4.890566     0.830050     0.937509     0.584103     0.832187     0.012574 
          54     0.208333     4.800000     0.818345     0.937875     0.585624     0.823031     0.025796 
          55     0.212191     4.712727     0.813876     0.934252     0.570857     0.820106     0.033472 
          56     0.216049     4.628572     0.808833     0.926919     0.542829     0.813366     0.023714 
          57     0.219907     4.547369     0.798360     0.924295     0.533358     0.800061     0.008437 
          58     0.223765     4.468966     0.788830     0.913973     0.498646     0.791866     0.014376 
          59     0.227623     4.393221     0.768594     0.907357     0.478320     0.771986     0.014656 
          60     0.231481     4.320000     0.738475     0.887860     0.425681     0.740559     0.007971 
          61     0.235339     4.249181     0.717907     0.859957     0.365023     0.718040 4.722840e-04 
          62     0.239198     4.180645     0.695002     0.854899     0.355487     0.693343     -0.00544 
          63     0.243056     4.114286     0.646429     0.850183     0.346938     0.646494 1.842487e-04 
          64     0.246914     4.050000     0.602152     0.807131     0.281489     0.602331 4.502704e-04 
          65     0.250772     3.987692     0.560375     0.759509     0.228188     0.565710     0.012136 
          66     0.254630     3.927273     0.513901     0.741846     0.211989     0.526182     0.025265 
          67     0.258488     3.868657     0.497401     0.713820     0.189302     0.507914     0.020917 
          68     0.262346     3.811765     0.463479     0.689718     0.172251     0.477371     0.025892 
          69     0.266204     3.756522     0.444271     0.673480     0.161841     0.452495     0.014799 
          70     0.270062     3.702857     0.432917     0.656787     0.151929     0.432304     -0.00108 
          71     0.273920     3.650704     0.405252     0.572842     0.111540     0.406760     0.002535 
          72     0.277778     3.600000     0.363896     0.554019     0.104178     0.370870     0.010964 
          73     0.281636     3.550685     0.307916     0.501082     0.085941     0.315270     0.010627 
          74     0.285494     3.502703     0.268270     0.459356     0.073680     0.268916 8.832923e-04 
          75     0.289352     3.456000     0.245399     0.445981     0.070079     0.246523     0.001489 
          76     0.293210     3.410526     0.206733     0.303505     0.039195     0.211079     0.005479 
          77     0.297068     3.366234     0.162678     0.338265     0.045669     0.179550     0.020149 
          78     0.300926     3.323077     0.160424     0.295130     0.037718     0.177529     0.020374 
          79     0.304784     3.281013     0.128576     0.277318     0.034678     0.143322     0.016922 
          80     0.308642     3.240000     0.097903     0.185101     0.020822     0.108399     0.011635 
          81     0.312500     3.200000     0.091022     0.077966     0.007854     0.098708     0.008456 
          82     0.316358     3.160976     0.103434     0.130301     0.013832     0.098788     -0.00518 
          83     0.320216     3.122892     0.078803     0.118033     0.012374     0.065227     -0.01474 
          84     0.324074     3.085714     0.037499     0.012624     0.001195     0.026921     -0.01099 
          85     0.327932     3.049412     0.016145     -0.07596     -0.00665     0.007641     -0.00864 
          86     0.331790     3.013954     0.031286     0.136638     0.014599     0.021492     -0.01011 
          87     0.335648     2.979310     0.025525     -0.04920     -0.00441     0.019554     -0.00613 
          88     0.339506     2.945455     0.003263 8.940973e-04 8.376909e-05     0.006227     0.002974 
          89     0.343364     2.912360     -0.03083     0.078447     0.007906     -0.02307     0.007528 
          90     0.347222     2.880000     -0.05830     -0.08529     -0.00741     -0.05186     0.006082 
          91     0.351080     2.848352     -0.06059     -0.14442     -0.01196     -0.04863     0.011274 
          92     0.354938     2.817391     -0.04990     -0.21797     -0.01704     -0.03357     0.015547 
          93     0.358796     2.787097     -0.04135     -0.12388     -0.01043     -0.03410     0.006965 
          94     0.362654     2.757447     -0.02086     -0.14766     -0.01219     -0.02795     -0.00694 
          95     0.366512     2.728421     -0.00576     0.028942     0.002782     -0.00771     -0.00195 
          96     0.370370     2.700000 3.464920e-04     0.082392     0.008336     0.003313     0.002968 
 

# version 50001

data_guinier

loop_ 
_rlnResolutionSquared #1 
_rlnLogAmplitudesOriginal #2 
_rlnLogAmplitudesWeighted #3 
    0.000000    -26.20858    -26.20858 
1.488435e-05     -4.92266     -4.92290 
5.953741e-05     -6.02507     -6.02553 
1.339592e-04     -6.13866     -6.13878 
2.381496e-04     -6.09374     -6.09378 
3.721088e-04     -6.50460     -6.50463 
5.358367e-04     -6.94140     -6.94145 
7.293333e-04     -7.23688     -7.23699 
9.525986e-04     -7.34172     -7.34196 
    0.001206     -7.55982     -7.56016 
    0.001488     -7.59627     -7.59678 
    0.001801     -7.82160     -7.82218 
    0.002143     -8.12550     -8.12615 
    0.002515     -8.27536     -8.27635 
    0.002917     -8.05494     -8.05637 
    0.003349     -8.12273     -8.12422 
    0.003810     -8.20989     -8.21184 
    0.004302     -8.26885     -8.27095 
    0.004823     -8.17726     -8.17921 
    0.005373     -8.16322     -8.16545 
    0.005954     -8.08563     -8.08816 
    0.006564     -8.10124     -8.10370 
    0.007204     -8.21370     -8.21622 
    0.007874     -8.16650     -8.16885 
    0.008573     -8.01476     -8.01702 
    0.009303     -8.03295     -8.03585 
    0.010062     -8.28689     -8.29065 
    0.010851     -8.22125     -8.22547 
    0.011669     -8.29215     -8.29665 
    0.012518     -8.44585     -8.45118 
    0.013396     -8.50763     -8.51468 
    0.014304     -8.55587     -8.56390 
    0.015242     -8.65265     -8.66213 
    0.016209     -8.75144     -8.76367 
    0.017206     -8.70760     -8.72070 
    0.018233     -8.73691     -8.75088 
    0.019290     -8.87831     -8.89820 
    0.020377     -9.01116     -9.03879 
    0.021493     -9.09004     -9.12049 
    0.022639     -8.99824     -9.05648 
    0.023815     -9.01371     -9.06399 
    0.025021     -9.02965     -9.07839 
    0.026256     -9.06056     -9.11621 
    0.027521     -9.10610     -9.15900 
    0.028816     -9.04024     -9.09086 
    0.030141     -9.06232     -9.11795 
    0.031495     -9.04761     -9.10304 
    0.032880     -9.03445     -9.08617 
    0.034294     -8.96549     -9.01461 
    0.035737     -8.90014     -8.94468 
    0.037211     -8.86518     -8.90774 
    0.038714     -8.84185     -8.88469 
    0.040247     -8.87114     -8.91548 
    0.041810     -8.89226     -8.94100 
    0.043403     -8.87154     -8.92416 
    0.045025     -8.85659     -8.91072 
    0.046677     -8.87674     -8.93259 
    0.048359     -8.87148     -8.93094 
    0.050071     -8.90996     -8.97277 
    0.051812     -8.93870     -9.00881 
    0.053584     -8.99883     -9.08034 
    0.055385     -9.05838     -9.14807 
    0.057215     -9.05748     -9.15667 
    0.059076     -9.07416     -9.19503 
    0.060966     -9.11582     -9.25854 
    0.062886     -9.16805     -9.33351 
    0.064836     -9.17994     -9.37358 
    0.066816     -9.21028     -9.41475 
    0.068825     -9.21955     -9.44788 
    0.070864     -9.21837     -9.46126 
    0.072933     -9.22725     -9.47914 
    0.075032     -9.26268     -9.53784 
    0.077160     -9.27485     -9.58889 
    0.079319     -9.29213     -9.66874 
    0.081507     -9.30318     -9.73331 
    0.083724     -9.31524     -9.78083 
    0.085972     -9.33091     -9.86645 
    0.088249     -9.33190     -9.96868 
    0.090556     -9.33842     -9.98120 
    0.092893     -9.33710    -10.07662 
    0.095260     -9.34924    -10.21126 
    0.097656     -9.35211    -10.24742 
    0.100082     -9.35921    -10.19627 
    0.102538     -9.35322    -10.31498 
    0.105024     -9.35402    -10.66757 
    0.107539     -9.36642    -11.09092 
    0.110085     -9.35262    -10.75374 
    0.112660     -9.35085    -10.85092 
    0.115264     -9.34428    -11.86191 
    0.117899     -9.33269    -99.00000 
    0.120563     -9.33389    -99.00000 
    0.123257     -9.33275    -99.00000 
    0.125981     -9.33551    -99.00000 
    0.128735     -9.31942    -99.00000 
    0.131518     -9.32709    -99.00000 
    0.134331     -9.32004    -99.00000 
    0.137174     -9.58685    -99.00000 
 
