# RELION postprocess; version 5.0-beta-2-commit-a0b145
# --mask mask_fsc.mrc --i Reconstruct/job072/half1.mrc --o PostProcess/job073/postprocess --angpix -1 --pipeline_control PostProcess/job073/ 

# version 50001

data_general

_rlnFinalResolution                               3.281013
_rlnBfactorUsedForSharpening                      0.000000
_rlnUnfilteredMapHalf1                        Reconstruct/job072/half1.mrc
_rlnUnfilteredMapHalf2                        Reconstruct/job072/half2.mrc
_rlnPostprocessedMap                          PostProcess/job073/postprocess.mrc
_rlnParticleBoxFractionSolventMask               10.682012
_rlnMaskName                                  mask_fsc.mrc
_rlnRandomiseFrom                                 7.005406
_rlnPostprocessedMapMasked                    PostProcess/job073/postprocess_masked.mrc
 

# version 50001

data_fsc

loop_ 
_rlnSpectralIndex #1 
_rlnResolution #2 
_rlnAngstromResolution #3 
_rlnFourierShellCorrelationCorrected #4 
_rlnFourierShellCorrelationParticleMaskFraction #5 
_rlnFourierShellCorrelationUnmaskedMaps #6 
_rlnFourierShellCorrelationMaskedMaps #7 
_rlnCorrectedFourierShellCorrelationPhaseRandomizedMaskedMaps #8 
           0     0.001001   999.000000     1.000000     1.000000     1.000000     1.000000     1.000000 
           1     0.003858   259.200012     0.999152     0.999957     0.999545     0.999152     0.998965 
           2     0.007716   129.600006     0.998243     0.999859     0.998496     0.998243     0.998069 
           3     0.011574    86.400004     0.999498     0.999988     0.999875     0.999498     0.999568 
           4     0.015432    64.800003     0.999831     0.999980     0.999787     0.999831     0.999843 
           5     0.019290    51.840002     0.999880     0.999968     0.999655     0.999880     0.999888 
           6     0.023148    43.200002     0.999822     0.999938     0.999341     0.999822     0.999817 
           7     0.027006    37.028573     0.999587     0.999866     0.998570     0.999587     0.999570 
           8     0.030864    32.400002     0.999018     0.999856     0.998460     0.999018     0.999070 
           9     0.034722    28.800001     0.998598     0.999773     0.997581     0.998598     0.998667 
          10     0.038580    25.920001     0.997921     0.999679     0.996580     0.997921     0.997911 
          11     0.042438    23.563637     0.997544     0.999519     0.994881     0.997544     0.997468 
          12     0.046296    21.600001     0.997236     0.999212     0.991649     0.997236     0.997195 
          13     0.050154    19.938462     0.995906     0.998610     0.985345     0.995906     0.995830 
          14     0.054012    18.514287     0.994279     0.999098     0.990449     0.994279     0.994229 
          15     0.057870    17.280001     0.994205     0.998666     0.985934     0.994205     0.994078 
          16     0.061728    16.200001     0.992574     0.998185     0.980946     0.992574     0.992718 
          17     0.065586    15.247060     0.992120     0.998603     0.985278     0.992120     0.992617 
          18     0.069444    14.400001     0.992599     0.998680     0.986073     0.992599     0.992863 
          19     0.073302    13.642106     0.991548     0.998341     0.982556     0.991548     0.991540 
          20     0.077160    12.960001     0.990437     0.997810     0.977092     0.990437     0.990262 
          21     0.081019    12.342858     0.990652     0.997558     0.974521     0.990652     0.990478 
          22     0.084877    11.781819     0.990565     0.997381     0.972716     0.990565     0.990477 
          23     0.088735    11.269566     0.991033     0.997668     0.975643     0.991033     0.991339 
          24     0.092593    10.800001     0.991371     0.998034     0.979393     0.991371     0.991779 
          25     0.096451    10.368000     0.988974     0.997765     0.976629     0.988974     0.989154 
          26     0.100309     9.969231     0.985490     0.995347     0.952436     0.985490     0.985336 
          27     0.104167     9.600000     0.983904     0.996406     0.962904     0.983904     0.983610 
          28     0.108025     9.257143     0.983194     0.996124     0.960095     0.983194     0.982659 
          29     0.111883     8.937931     0.980838     0.994010     0.939519     0.980838     0.979722 
          30     0.115741     8.640000     0.974223     0.991410     0.915285     0.974223     0.973991 
          31     0.119599     8.361291     0.969666     0.991203     0.913403     0.969666     0.971647 
          32     0.123457     8.100000     0.963494     0.990139     0.903846     0.963494     0.965286 
          33     0.127315     7.854546     0.953472     0.984074     0.852607     0.953472     0.953143 
          34     0.131173     7.623530     0.950233     0.985754     0.866268     0.950233     0.949930 
          35     0.135031     7.405715     0.948212     0.985461     0.863855     0.948212     0.947952 
          36     0.138889     7.200000     0.927347     0.978898     0.812826     0.927347     0.919291 
          37     0.142747     7.005406     0.899577     0.962722     0.707402     0.899577     0.831264 
          38     0.146605     6.821053     0.889688     0.958990     0.686433     0.889688     0.641966 
          39     0.150463     6.646154     0.804254     0.966107     0.727408     0.882228     0.398341 
          40     0.154321     6.480000     0.828751     0.962092     0.703783     0.882789     0.315553 
          41     0.158179     6.321952     0.830922     0.960842     0.696700     0.869752     0.229658 
          42     0.162037     6.171429     0.807964     0.952019     0.650042     0.847476     0.205752 
          43     0.165895     6.027907     0.817416     0.946051     0.621447     0.852319     0.191162 
          44     0.169753     5.890909     0.822803     0.947389     0.627669     0.844167     0.120563 
          45     0.173611     5.760000     0.812299     0.941623     0.601599     0.832592     0.108118 
          46     0.177469     5.634783     0.814053     0.940222     0.595540     0.828591     0.078182 
          47     0.181327     5.514894     0.822497     0.937644     0.584665     0.831156     0.048784 
          48     0.185185     5.400000     0.835186     0.943015     0.607721     0.843584     0.050954 
          49     0.189043     5.289796     0.852697     0.950169     0.640937     0.857776     0.034478 
          50     0.192901     5.184000     0.855890     0.949605     0.638207     0.860691     0.033314 
          51     0.196759     5.082353     0.854131     0.952552     0.652703     0.857650     0.024124 
          52     0.200617     4.984616     0.843787     0.945943     0.620949     0.845817     0.012998 
          53     0.204475     4.890566     0.822036     0.938013     0.586200     0.824335     0.012916 
          54     0.208333     4.800000     0.811015     0.935865     0.577352     0.814871     0.020401 
          55     0.212191     4.712727     0.809378     0.934604     0.572265     0.815568     0.032473 
          56     0.216049     4.628572     0.806839     0.928092     0.547153     0.812355     0.028557 
          57     0.219907     4.547369     0.799603     0.924017     0.532368     0.802389     0.013906 
          58     0.223765     4.468966     0.789645     0.915395     0.503201     0.793675     0.019159 
          59     0.227623     4.393221     0.765325     0.903849     0.468090     0.769689     0.018594 
          60     0.231481     4.320000     0.737472     0.889390     0.429464     0.739316     0.007024 
          61     0.235339     4.249181     0.720242     0.863248     0.371443     0.719811     -0.00154 
          62     0.239198     4.180645     0.700260     0.857430     0.360209     0.697503     -0.00920 
          63     0.243056     4.114286     0.655097     0.851859     0.349939     0.654159     -0.00272 
          64     0.246914     4.050000     0.609434     0.811596     0.287379     0.612140     0.006927 
          65     0.250772     3.987692     0.571652     0.769694     0.238308     0.580499     0.020654 
          66     0.254630     3.927273     0.533158     0.752486     0.221552     0.543599     0.022365 
          67     0.258488     3.868657     0.521199     0.719262     0.193449     0.527747     0.013675 
          68     0.262346     3.811765     0.476723     0.696584     0.176902     0.489810     0.025010 
          69     0.266204     3.756522     0.448111     0.668455     0.158777     0.459514     0.020660 
          70     0.270062     3.702857     0.442312     0.661520     0.154663     0.447899     0.010017 
          71     0.273920     3.650704     0.418287     0.585509     0.116795     0.424611     0.010872 
          72     0.277778     3.600000     0.378598     0.551775     0.103334     0.388094     0.015281 
          73     0.281636     3.550685     0.329177     0.518272     0.091501     0.336980     0.011632 
          74     0.285494     3.502703     0.290721     0.486467     0.081457     0.288516     -0.00311 
          75     0.289352     3.456000     0.263401     0.470715     0.076857     0.261916     -0.00202 
          76     0.293210     3.410526     0.217123     0.287008     0.036315     0.222741     0.007176 
          77     0.297068     3.366234     0.162718     0.332832     0.044618     0.178999     0.019445 
          78     0.300926     3.323077     0.167062     0.231935     0.027492     0.178626     0.013883 
          79     0.304784     3.281013     0.147793     0.214185     0.024881     0.154825     0.008251 
          80     0.308642     3.240000     0.112778     0.122877     0.012945     0.119860     0.007983 
          81     0.312500     3.200000     0.102571     0.038319     0.003716     0.106281     0.004134 
          82     0.316358     3.160976     0.109114     0.080562     0.008136     0.102993     -0.00687 
          83     0.320216     3.122892     0.083316     0.109549     0.011386     0.070720     -0.01374 
          84     0.324074     3.085714     0.034886     -0.09311     -0.00804     0.027605     -0.00754 
          85     0.327932     3.049412     0.022882     0.069384     0.006931     0.018905     -0.00407 
          86     0.331790     3.013954     0.039493     0.085929     0.008724     0.029686     -0.01021 
          87     0.335648     2.979310     0.029929     -0.11955     -0.01010     0.019443     -0.01081 
          88     0.339506     2.945455     0.019845     0.023545     0.002252     0.015839     -0.00409 
          89     0.343364     2.912360     -0.00855     0.066831     0.006660     -0.00561     0.002919 
          90     0.347222     2.880000     -0.04951     -0.04021     -0.00363     -0.04274     0.006453 
          91     0.351080     2.848352     -0.06589     -0.20477     -0.01617     -0.05052     0.014418 
          92     0.354938     2.817391     -0.04512     -0.13718     -0.01142     -0.03069     0.013805 
          93     0.358796     2.787097     -0.03138     -0.03790     -0.00343     -0.02785     0.003422 
          94     0.362654     2.757447     -0.01155     -0.19112     -0.01525     -0.01585     -0.00425 
          95     0.366512     2.728421     0.008167     0.140360     0.015055     0.006226     -0.00196 
          96     0.370370     2.700000     0.020577     0.048029     0.004701     0.016262     -0.00441 
 

# version 50001

data_guinier

loop_ 
_rlnResolutionSquared #1 
_rlnLogAmplitudesOriginal #2 
_rlnLogAmplitudesWeighted #3 
    0.000000    -27.03036    -27.03036 
1.488435e-05     -4.92241     -4.92262 
5.953741e-05     -6.02465     -6.02509 
1.339592e-04     -6.13832     -6.13845 
2.381496e-04     -6.09165     -6.09169 
3.721088e-04     -6.50229     -6.50232 
5.358367e-04     -6.93866     -6.93870 
7.293333e-04     -7.23242     -7.23252 
9.525986e-04     -7.33819     -7.33844 
    0.001206     -7.55490     -7.55525 
    0.001488     -7.59173     -7.59225 
    0.001801     -7.81720     -7.81782 
    0.002143     -8.11992     -8.12061 
    0.002515     -8.26966     -8.27068 
    0.002917     -8.04992     -8.05135 
    0.003349     -8.11651     -8.11797 
    0.003810     -8.20246     -8.20433 
    0.004302     -8.26192     -8.26391 
    0.004823     -8.16692     -8.16878 
    0.005373     -8.15491     -8.15704 
    0.005954     -8.07663     -8.07904 
    0.006564     -8.09390     -8.09625 
    0.007204     -8.20667     -8.20905 
    0.007874     -8.15534     -8.15760 
    0.008573     -8.00332     -8.00549 
    0.009303     -8.02405     -8.02683 
    0.010062     -8.27497     -8.27864 
    0.010851     -8.21327     -8.21734 
    0.011669     -8.28456     -8.28882 
    0.012518     -8.43662     -8.44148 
    0.013396     -8.50057     -8.50714 
    0.014304     -8.54834     -8.55610 
    0.015242     -8.63948     -8.64886 
    0.016209     -8.73866     -8.75071 
    0.017206     -8.70232     -8.71524 
    0.018233     -8.72656     -8.74003 
    0.019290     -8.87053     -8.88974 
    0.020377     -9.00363     -9.03079 
    0.021493     -9.08417     -9.11424 
    0.022639     -8.99014     -9.04756 
    0.023815     -9.00338     -9.05254 
    0.025021     -9.01884     -9.06728 
    0.026256     -9.05125     -9.10740 
    0.027521     -9.09536     -9.14830 
    0.028816     -9.03954     -9.09067 
    0.030141     -9.05469     -9.10936 
    0.031495     -9.03655     -9.09062 
    0.032880     -9.02804     -9.07928 
    0.034294     -8.96379     -9.01084 
    0.035737     -8.90124     -8.94267 
    0.037211     -8.86483     -8.90524 
    0.038714     -8.83965     -8.88062 
    0.040247     -8.87402     -8.91828 
    0.041810     -8.89589     -8.94728 
    0.043403     -8.88413     -8.93924 
    0.045025     -8.86329     -8.91896 
    0.046677     -8.87774     -8.93427 
    0.048359     -8.87380     -8.93283 
    0.050071     -8.91538     -8.97790 
    0.051812     -8.95447     -9.02579 
    0.053584     -9.00436     -9.08626 
    0.055385     -9.06446     -9.15320 
    0.057215     -9.06679     -9.16376 
    0.059076     -9.08538     -9.20223 
    0.060966     -9.13473     -9.27371 
    0.062886     -9.18033     -9.33943 
    0.064836     -9.18448     -9.36604 
    0.066816     -9.21554     -9.40452 
    0.068825     -9.22891     -9.44766 
    0.070864     -9.22601     -9.46592 
    0.072933     -9.22960     -9.47402 
    0.075032     -9.26539     -9.52934 
    0.077160     -9.27399     -9.57359 
    0.079319     -9.29217     -9.64345 
    0.081507     -9.29497     -9.69369 
    0.083724     -9.31375     -9.75112 
    0.085972     -9.33546     -9.85078 
    0.088249     -9.33089     -9.96756 
    0.090556     -9.34587     -9.97124 
    0.092893     -9.34672    -10.02504 
    0.095260     -9.35892    -10.15694 
    0.097656     -9.36007    -10.20092 
    0.100082     -9.35954    -10.17243 
    0.102538     -9.35692    -10.29292 
    0.105024     -9.35951    -10.70792 
    0.107539     -9.35082    -10.90425 
    0.110085     -9.35318    -10.64179 
    0.112660     -9.36317    -10.78580 
    0.115264     -9.35020    -10.97334 
    0.117899     -9.33541    -99.00000 
    0.120563     -9.33316    -99.00000 
    0.123257     -9.33171    -99.00000 
    0.125981     -9.33153    -99.00000 
    0.128735     -9.31763    -99.00000 
    0.131518     -9.32448    -99.00000 
    0.134331     -9.31183    -99.00000 
    0.137174     -9.59267    -99.00000 
 
