# RELION postprocess; version 5.0-beta-2-commit-a0b145
# --mask mask_fsc.mrc --i Reconstruct/job025/half1.mrc --o PostProcess/job026/postprocess --angpix -1 --pipeline_control PostProcess/job026/ 

# version 50001

data_general

_rlnFinalResolution                               3.987692
_rlnBfactorUsedForSharpening                      0.000000
_rlnUnfilteredMapHalf1                        Reconstruct/job025/half1.mrc
_rlnUnfilteredMapHalf2                        Reconstruct/job025/half2.mrc
_rlnPostprocessedMap                          PostProcess/job026/postprocess.mrc
_rlnParticleBoxFractionSolventMask               10.682012
_rlnMaskName                                  mask_fsc.mrc
_rlnRandomiseFrom                                 7.854546
_rlnPostprocessedMapMasked                    PostProcess/job026/postprocess_masked.mrc
 

# version 50001

data_fsc

loop_ 
_rlnSpectralIndex #1 
_rlnResolution #2 
_rlnAngstromResolution #3 
_rlnFourierShellCorrelationCorrected #4 
_rlnFourierShellCorrelationParticleMaskFraction #5 
_rlnFourierShellCorrelationUnmaskedMaps #6 
_rlnFourierShellCorrelationMaskedMaps #7 
_rlnCorrectedFourierShellCorrelationPhaseRandomizedMaskedMaps #8 
           0     0.001001   999.000000     1.000000     1.000000     1.000000     1.000000     1.000000 
           1     0.003858   259.200012     0.999490     0.999961     0.999587     0.999490     0.999367 
           2     0.007716   129.600006     0.998603     0.999906     0.998995     0.998603     0.998445 
           3     0.011574    86.400004     0.999519     0.999992     0.999912     0.999519     0.999590 
           4     0.015432    64.800003     0.999811     0.999990     0.999895     0.999811     0.999854 
           5     0.019290    51.840002     0.999812     0.999972     0.999706     0.999812     0.999831 
           6     0.023148    43.200002     0.999753     0.999953     0.999493     0.999753     0.999757 
           7     0.027006    37.028573     0.999615     0.999928     0.999228     0.999615     0.999581 
           8     0.030864    32.400002     0.999191     0.999900     0.998938     0.999191     0.999196 
           9     0.034722    28.800001     0.998759     0.999812     0.997998     0.998759     0.998645 
          10     0.038580    25.920001     0.998045     0.999723     0.997053     0.998045     0.997765 
          11     0.042438    23.563637     0.997530     0.999604     0.995786     0.997530     0.997275 
          12     0.046296    21.600001     0.996954     0.999119     0.990666     0.996954     0.996797 
          13     0.050154    19.938462     0.995769     0.998385     0.983017     0.995769     0.995375 
          14     0.054012    18.514287     0.993388     0.998880     0.988163     0.993388     0.992980 
          15     0.057870    17.280001     0.991278     0.998245     0.981567     0.991278     0.991033 
          16     0.061728    16.200001     0.987582     0.996839     0.967236     0.987582     0.987336 
          17     0.065586    15.247060     0.989944     0.997630     0.975247     0.989944     0.989889 
          18     0.069444    14.400001     0.992283     0.998629     0.985545     0.992283     0.992635 
          19     0.073302    13.642106     0.990248     0.998034     0.979389     0.990248     0.990386 
          20     0.077160    12.960001     0.987953     0.996820     0.967051     0.987953     0.987420 
          21     0.081019    12.342858     0.988134     0.996987     0.968731     0.988134     0.988081 
          22     0.084877    11.781819     0.986889     0.996600     0.964835     0.986889     0.987019 
          23     0.088735    11.269566     0.986547     0.996282     0.961664     0.986547     0.986882 
          24     0.092593    10.800001     0.987141     0.997470     0.973625     0.987141     0.988013 
          25     0.096451    10.368000     0.984679     0.997039     0.969247     0.984679     0.985605 
          26     0.100309     9.969231     0.978555     0.991935     0.920087     0.978555     0.978703 
          27     0.104167     9.600000     0.972525     0.993963     0.939077     0.972525     0.971787 
          28     0.108025     9.257143     0.968393     0.993442     0.934128     0.968393     0.968366 
          29     0.111883     8.937931     0.960291     0.989374     0.897081     0.960291     0.961365 
          30     0.115741     8.640000     0.943233     0.980517     0.824910     0.943233     0.943995 
          31     0.119599     8.361291     0.930245     0.978222     0.807875     0.930245     0.931038 
          32     0.123457     8.100000     0.922700     0.981743     0.834271     0.922700     0.913915 
          33     0.127315     7.854546     0.904285     0.965939     0.726391     0.904285     0.829959 
          34     0.131173     7.623530     0.882954     0.965603     0.724368     0.882954     0.577374 
          35     0.135031     7.405715     0.781444     0.966490     0.729732     0.870077     0.405542 
          36     0.138889     7.200000     0.753245     0.949830     0.639295     0.832712     0.322049 
          37     0.142747     7.005406     0.691116     0.892238     0.436653     0.775304     0.272555 
          38     0.146605     6.821053     0.634370     0.885913     0.420943     0.725835     0.250156 
          39     0.150463     6.646154     0.662447     0.910817     0.488776     0.719110     0.167864 
          40     0.154321     6.480000     0.681192     0.885086     0.418957     0.718554     0.117193 
          41     0.158179     6.321952     0.639685     0.882048     0.411785     0.682087     0.117682 
          42     0.162037     6.171429     0.603430     0.855750     0.357063     0.653210     0.125527 
          43     0.165895     6.027907     0.583676     0.802009     0.274948     0.620043     0.087351 
          44     0.169753     5.890909     0.564068     0.839955     0.329452     0.595551     0.072221 
          45     0.173611     5.760000     0.557014     0.805584     0.279490     0.590750     0.076157 
          46     0.177469     5.634783     0.579446     0.796745     0.268453     0.595407     0.037953 
          47     0.181327     5.514894     0.553910     0.785232     0.254996     0.562912     0.020180 
          48     0.185185     5.400000     0.556490     0.783373     0.252914     0.565411     0.020114 
          49     0.189043     5.289796     0.563684     0.796333     0.267954     0.565569     0.004319 
          50     0.192901     5.184000     0.532178     0.783816     0.253408     0.539151     0.014906 
          51     0.196759     5.082353     0.526892     0.807728     0.282267     0.530227     0.007049 
          52     0.200617     4.984616     0.539133     0.773665     0.242424     0.534703     -0.00961 
          53     0.204475     4.890566     0.520887     0.743480     0.213421     0.517380     -0.00732 
          54     0.208333     4.800000     0.472125     0.738295     0.208922     0.475344     0.006098 
          55     0.212191     4.712727     0.460695     0.706542     0.183935     0.464923     0.007839 
          56     0.216049     4.628572     0.421592     0.650465     0.148366     0.424398     0.004850 
          57     0.219907     4.547369     0.342836     0.674036     0.162185     0.352632     0.014907 
          58     0.223765     4.468966     0.308593     0.609697     0.127581     0.321983     0.019366 
          59     0.227623     4.393221     0.272860     0.521275     0.092506     0.270083     -0.00382 
          60     0.231481     4.320000     0.214569     0.469177     0.076420     0.219319     0.006048 
          61     0.235339     4.249181     0.204065     0.322310     0.042626     0.211471     0.009305 
          62     0.239198     4.180645     0.230381     0.368582     0.051815     0.232231     0.002403 
          63     0.243056     4.114286     0.211141     0.439179     0.068303     0.217929     0.008605 
          64     0.246914     4.050000     0.180284     0.367733     0.051636     0.188672     0.010233 
          65     0.250772     3.987692     0.149679     0.173089     0.019219     0.157702     0.009436 
          66     0.254630     3.927273     0.129748     0.065538     0.006523     0.143198     0.015456 
          67     0.258488     3.868657     0.093505     -0.01989     -0.00183     0.108281     0.016301 
          68     0.262346     3.811765     0.053368     0.230674     0.027303     0.067148     0.014557 
          69     0.266204     3.756522     0.027529     0.081339     0.008221     0.043022     0.015932 
          70     0.270062     3.702857     0.022331     0.049966     0.004899     0.041550     0.019658 
          71     0.273920     3.650704     0.036134     0.032763     0.003161     0.046928     0.011199 
          72     0.277778     3.600000     0.026992     0.243840     0.029304     0.023098     -0.00400 
          73     0.281636     3.550685     0.013168     0.151483     0.016438     0.016413     0.003288 
          74     0.285494     3.502703     -0.01030     0.085925     0.008723     0.003301     0.013458 
          75     0.289352     3.456000     -0.02808     0.139340     0.014930     -0.02795 1.238434e-04 
          76     0.293210     3.410526     -0.01786     0.206084     0.023724     -0.02573     -0.00773 
          77     0.297068     3.366234     -0.00398     0.028466     0.002735     -0.00577     -0.00178 
          78     0.300926     3.323077     0.019881     -0.20477     -0.01617     0.031880     0.012243 
          79     0.304784     3.281013     0.015089     -0.04906     -0.00440     0.028785     0.013906 
          80     0.308642     3.240000     -0.00683     0.146142     0.015770 -6.04233e-04     0.006182 
          81     0.312500     3.200000     -0.03193     -0.21129     -0.01660     -0.02129     0.010313 
          82     0.316358     3.160976     -0.02627     -0.20975     -0.01650     -0.01628     0.009736 
          83     0.320216     3.122892     -0.02651     -0.02281     -0.00209     -0.00688     0.019123 
          84     0.324074     3.085714     -0.04980     -0.08652     -0.00751     -0.02549     0.023160 
          85     0.327932     3.049412     -0.05922     0.015039     0.001427     -0.04469     0.013717 
          86     0.331790     3.013954     -0.02926     -0.03739     -0.00339     -0.02173     0.007308 
          87     0.335648     2.979310     0.008916     -0.01271     -0.00118     0.014436     0.005570 
          88     0.339506     2.945455     0.017206     0.012872     0.001219     0.018336     0.001149 
          89     0.343364     2.912360     0.011508     -0.08542     -0.00742     0.013637     0.002154 
          90     0.347222     2.880000     0.024256     -0.05863     -0.00521     0.023066     -0.00122 
          91     0.351080     2.848352     0.017721     -0.04988     -0.00447     0.015050     -0.00272 
          92     0.354938     2.817391     0.002265     0.126080     0.013326 -7.08515e-04     -0.00298 
          93     0.358796     2.787097     0.018895     0.044913     0.004383     0.008907     -0.01018 
          94     0.362654     2.757447     0.019458     0.061044     0.006049     0.008696     -0.01098 
          95     0.366512     2.728421     -0.00592     0.098926     0.010173     -0.01284     -0.00687 
          96     0.370370     2.700000     -0.01261     0.131558     0.013983     -0.02517     -0.01240 
 

# version 50001

data_guinier

loop_ 
_rlnResolutionSquared #1 
_rlnLogAmplitudesOriginal #2 
_rlnLogAmplitudesWeighted #3 
    0.000000    -26.56350    -26.56350 
1.488435e-05     -4.75046     -4.75059 
5.953741e-05     -5.84570     -5.84605 
1.339592e-04     -5.99358     -5.99370 
2.381496e-04     -5.96107     -5.96112 
3.721088e-04     -6.39350     -6.39355 
5.358367e-04     -6.82432     -6.82438 
7.293333e-04     -7.11624     -7.11634 
9.525986e-04     -7.21189     -7.21209 
    0.001206     -7.42809     -7.42840 
    0.001488     -7.44770     -7.44819 
    0.001801     -7.69363     -7.69424 
    0.002143     -8.02273     -8.02349 
    0.002515     -8.14527     -8.14633 
    0.002917     -7.89972     -7.90138 
    0.003349     -7.97401     -7.97620 
    0.003810     -8.15970     -8.16283 
    0.004302     -8.18320     -8.18574 
    0.004823     -7.97561     -7.97755 
    0.005373     -7.97139     -7.97384 
    0.005954     -8.03600     -8.03904 
    0.006564     -7.97825     -7.98124 
    0.007204     -8.06785     -8.07116 
    0.007874     -8.06172     -8.06512 
    0.008573     -7.84275     -7.84600 
    0.009303     -7.90878     -7.91265 
    0.010062     -8.26063     -8.26608 
    0.010851     -8.11745     -8.12447 
    0.011669     -8.11823     -8.12633 
    0.012518     -8.31047     -8.32071 
    0.013396     -8.44781     -8.46263 
    0.014304     -8.52140     -8.53981 
    0.015242     -8.49225     -8.51277 
    0.016209     -8.65691     -8.68269 
    0.017206     -8.64275     -8.67484 
    0.018233     -8.62935     -8.69479 
    0.019290     -8.77040     -8.84624 
    0.020377     -8.97090     -9.07175 
    0.021493     -8.97357     -9.10019 
    0.022639     -8.90765     -9.02112 
    0.023815     -8.94541     -9.05054 
    0.025021     -8.93721     -9.06128 
    0.026256     -9.00163     -9.14369 
    0.027521     -9.05158     -9.20408 
    0.028816     -8.98674     -9.15010 
    0.030141     -8.99400     -9.16140 
    0.031495     -8.96617     -9.12098 
    0.032880     -8.98398     -9.15317 
    0.034294     -8.95253     -9.12022 
    0.035737     -8.90860     -9.07218 
    0.037211     -8.90499     -9.08715 
    0.038714     -8.84863     -9.03405 
    0.040247     -8.85815     -9.03608 
    0.041810     -8.85787     -9.04705 
    0.043403     -8.85481     -9.07684 
    0.045025     -8.86933     -9.09972 
    0.046677     -8.91941     -9.18059 
    0.048359     -8.90467     -9.24074 
    0.050071     -8.94116     -9.31693 
    0.051812     -8.96775     -9.39121 
    0.053584     -8.97909     -9.49927 
    0.055385     -9.02074     -9.56168 
    0.057215     -9.00176     -9.49286 
    0.059076     -8.96278     -9.48960 
    0.060966     -8.97826     -9.57117 
    0.062886     -9.04526     -9.71806 
    0.064836     -9.05106     -9.78656 
    0.066816     -9.03325     -9.91625 
    0.068825     -9.01433    -10.15902 
    0.070864     -9.01575    -10.47901 
    0.072933     -9.00630    -10.57165 
    0.075032     -8.99534    -10.32678 
    0.077160     -8.97874    -10.45158 
    0.079319     -8.97626    -10.80120 
    0.081507     -8.97644    -99.00000 
    0.083724     -8.96604    -99.00000 
    0.085972     -8.96094    -99.00000 
    0.088249     -8.96112    -99.00000 
    0.090556     -8.97388    -99.00000 
    0.092893     -8.96034    -99.00000 
    0.095260     -8.94449    -99.00000 
    0.097656     -8.95245    -99.00000 
    0.100082     -8.94086    -99.00000 
    0.102538     -8.93919    -99.00000 
    0.105024     -8.92858    -99.00000 
    0.107539     -8.93153    -99.00000 
    0.110085     -8.92944    -99.00000 
    0.112660     -8.91592    -99.00000 
    0.115264     -8.90637    -99.00000 
    0.117899     -8.89687    -99.00000 
    0.120563     -8.90040    -99.00000 
    0.123257     -8.89602    -99.00000 
    0.125981     -8.88323    -99.00000 
    0.128735     -8.88703    -99.00000 
    0.131518     -8.87679    -99.00000 
    0.134331     -8.88203    -99.00000 
    0.137174     -9.15438    -99.00000 
 
