
# version 50001

data_TS_03

loop_ 
_rlnMicrographMovieName #1 
_rlnTomoTiltMovieFrameCount #2 
_rlnTomoNominalStageTiltAngle #3 
_rlnTomoNominalTiltAxisAngle #4 
_rlnMicrographPreExposure #5 
_rlnTomoNominalDefocus #6 
_rlnCtfPowerSpectrum #7 
_rlnMicrographNameEven #8 
_rlnMicrographNameOdd #9 
_rlnMicrographName #10 
_rlnMicrographMetadata #11 
_rlnAccumMotionTotal #12 
_rlnAccumMotionEarly #13 
_rlnAccumMotionLate #14 
_rlnCtfImage #15 
_rlnDefocusU #16 
_rlnDefocusV #17 
_rlnCtfAstigmatism #18 
_rlnDefocusAngle #19 
_rlnCtfFigureOfMerit #20 
_rlnCtfMaxResolution #21 
_rlnCtfIceRingDensity #22 
_rlnTomoXTilt #23 
_rlnTomoYTilt #24 
_rlnTomoZRot #25 
_rlnTomoXShiftAngst #26 
_rlnTomoYShiftAngst #27 
_rlnCtfScalefactor #28 
frames/TS_03_038_-57.0.mrc            8    -56.99900    85.000000   114.000000     -1.50000 MotionCorr/job002/frames/TS_03_038_-57_0_PS.mrc MotionCorr/job002/frames/TS_03_038_-57_0_EVN.mrc MotionCorr/job002/frames/TS_03_038_-57_0_ODD.mrc MotionCorr/job002/frames/TS_03_038_-57_0.mrc MotionCorr/job002/frames/TS_03_038_-57_0.star    96.111993     0.000000    96.111993 CtfFind/job003/frames/TS_03_038_-57_0_PS.ctf:mrc 15685.992786 16134.840003    91.772461   130.299885     0.015304    25.000000     0.530370     -0.15023    -57.23500    85.207156   -238.62453   -132.86837     0.462426 
frames/TS_03_035_-54.0.mrc            8    -53.99890    85.000000   105.000000     -1.50000 MotionCorr/job002/frames/TS_03_035_-54_0_PS.mrc MotionCorr/job002/frames/TS_03_035_-54_0_EVN.mrc MotionCorr/job002/frames/TS_03_035_-54_0_ODD.mrc MotionCorr/job002/frames/TS_03_035_-54_0.mrc MotionCorr/job002/frames/TS_03_035_-54_0.star    39.495946     0.000000    39.495946 CtfFind/job003/frames/TS_03_035_-54_0_PS.ctf:mrc 14690.469666 15416.747424    57.083984   124.914202     0.047231    25.000000     0.541930     -0.12909    -54.18945    85.224750    -62.42486   -110.54991     0.621970 
frames/TS_03_034_-51.0.mrc            8    -50.99930    85.000000   102.000000     -1.50000 MotionCorr/job002/frames/TS_03_034_-51_0_PS.mrc MotionCorr/job002/frames/TS_03_034_-51_0_EVN.mrc MotionCorr/job002/frames/TS_03_034_-51_0_ODD.mrc MotionCorr/job002/frames/TS_03_034_-51_0.mrc MotionCorr/job002/frames/TS_03_034_-51_0.star     8.906427     0.000000     8.906427 CtfFind/job003/frames/TS_03_034_-51_0_PS.ctf:mrc 12399.517954 13761.564024   539.439453   138.682019     0.074001    25.000000     0.540480     -0.22976    -51.15386    85.236885    15.619460    -53.96784     0.661932 
frames/TS_03_031_-48.0.mrc            8    -47.99910    85.000000    93.000000     -1.50000 MotionCorr/job002/frames/TS_03_031_-48_0_PS.mrc MotionCorr/job002/frames/TS_03_031_-48_0_EVN.mrc MotionCorr/job002/frames/TS_03_031_-48_0_ODD.mrc MotionCorr/job002/frames/TS_03_031_-48_0.mrc MotionCorr/job002/frames/TS_03_031_-48_0.star     5.301389     0.000000     5.301389 CtfFind/job003/frames/TS_03_031_-48_0_PS.ctf:mrc 12637.166733 13607.162350   424.787109   140.610818     0.070006     8.634910     0.616740     -0.19754    -48.13928    85.253726    17.123532    -58.21140     0.713145 
frames/TS_03_030_-45.0.mrc            8    -44.99900    85.000000    90.000000     -1.50000 MotionCorr/job002/frames/TS_03_030_-45_0_PS.mrc MotionCorr/job002/frames/TS_03_030_-45_0_EVN.mrc MotionCorr/job002/frames/TS_03_030_-45_0_ODD.mrc MotionCorr/job002/frames/TS_03_030_-45_0.mrc MotionCorr/job002/frames/TS_03_030_-45_0.star     4.361125     0.000000     4.361125 CtfFind/job003/frames/TS_03_030_-45_0_PS.ctf:mrc 13837.080281 14914.592036   521.800781   140.687802     0.079347    10.094332     0.768970     -0.10451    -45.09973    85.245473    26.781531    -24.22804     0.707420 
frames/TS_03_027_-42.0.mrc            8    -41.99940    85.000000    81.000000     -1.50000 MotionCorr/job002/frames/TS_03_027_-42_0_PS.mrc MotionCorr/job002/frames/TS_03_027_-42_0_EVN.mrc MotionCorr/job002/frames/TS_03_027_-42_0_ODD.mrc MotionCorr/job002/frames/TS_03_027_-42_0.mrc MotionCorr/job002/frames/TS_03_027_-42_0.star     3.259830     0.000000     3.259830 CtfFind/job003/frames/TS_03_027_-42_0_PS.ctf:mrc 13222.380455 14952.634412   890.588867   139.589863     0.072639     9.685102     0.694580     -0.04289    -42.16889    85.199541    20.960815    -32.29712     0.768688 
frames/TS_03_026_-39.0.mrc            8    -38.99870    85.000000    78.000000     -1.50000 MotionCorr/job002/frames/TS_03_026_-39_0_PS.mrc MotionCorr/job002/frames/TS_03_026_-39_0_EVN.mrc MotionCorr/job002/frames/TS_03_026_-39_0_ODD.mrc MotionCorr/job002/frames/TS_03_026_-39_0.mrc MotionCorr/job002/frames/TS_03_026_-39_0.star     3.213115     0.000000     3.213115 CtfFind/job003/frames/TS_03_026_-39_0_PS.ctf:mrc 13960.177095 15078.462161   603.708984   148.240097     0.087992    10.696979     0.975220     -0.08272    -39.12935    85.225975    26.298568     -3.29114     0.802281 
frames/TS_03_023_-36.0.mrc            8    -35.99860    85.000000    69.000000     -1.50000 MotionCorr/job002/frames/TS_03_023_-36_0_PS.mrc MotionCorr/job002/frames/TS_03_023_-36_0_EVN.mrc MotionCorr/job002/frames/TS_03_023_-36_0_ODD.mrc MotionCorr/job002/frames/TS_03_023_-36_0.mrc MotionCorr/job002/frames/TS_03_023_-36_0.star     3.701328     0.000000     3.701328 CtfFind/job003/frames/TS_03_023_-36_0_PS.ctf:mrc 13832.121655 14636.768982   275.329102   142.574342     0.076480     9.954133     0.493570     -0.05927    -36.10328    85.210526    17.997182    -12.97662     0.836088 
frames/TS_03_022_-33.0.mrc            8    -32.99900    85.000000    66.000000     -1.50000 MotionCorr/job002/frames/TS_03_022_-33_0_PS.mrc MotionCorr/job002/frames/TS_03_022_-33_0_EVN.mrc MotionCorr/job002/frames/TS_03_022_-33_0_ODD.mrc MotionCorr/job002/frames/TS_03_022_-33_0.mrc MotionCorr/job002/frames/TS_03_022_-33_0.star     3.010083     0.000000     3.010083 CtfFind/job003/frames/TS_03_022_-33_0_PS.ctf:mrc 13786.467327 14994.277595   693.416016   135.617485     0.085505     9.188430     0.757130     -0.07081    -33.07632    85.201079    21.301049    15.336414     0.897891 
frames/TS_03_019_-30.0.mrc            8    -29.99930    85.000000    57.000000     -1.50000 MotionCorr/job002/frames/TS_03_019_-30_0_PS.mrc MotionCorr/job002/frames/TS_03_019_-30_0_EVN.mrc MotionCorr/job002/frames/TS_03_019_-30_0_ODD.mrc MotionCorr/job002/frames/TS_03_019_-30_0.mrc MotionCorr/job002/frames/TS_03_019_-30_0.star     2.650273     0.000000     2.650273 CtfFind/job003/frames/TS_03_019_-30_0_PS.ctf:mrc 13703.149781 14941.088245   515.045898   146.147344     0.079407     8.848118     0.717920     -0.06516    -30.07717    85.225233    12.514845     4.616998     0.953441 
frames/TS_03_018_-27.0.mrc            8    -26.99870    85.000000    54.000000     -1.50000 MotionCorr/job002/frames/TS_03_018_-27_0_PS.mrc MotionCorr/job002/frames/TS_03_018_-27_0_EVN.mrc MotionCorr/job002/frames/TS_03_018_-27_0_ODD.mrc MotionCorr/job002/frames/TS_03_018_-27_0.mrc MotionCorr/job002/frames/TS_03_018_-27_0.star     2.942248     0.000000     2.942248 CtfFind/job003/frames/TS_03_018_-27_0_PS.ctf:mrc 13661.091745 14833.416571   774.749023   155.022115     0.072302     8.532114     0.897310     -0.02515    -27.07242    85.216856    17.469464    35.123529     0.966226 
frames/TS_03_015_-24.0.mrc            8    -23.99860    85.000000    45.000000     -1.50000 MotionCorr/job002/frames/TS_03_015_-24_0_PS.mrc MotionCorr/job002/frames/TS_03_015_-24_0_EVN.mrc MotionCorr/job002/frames/TS_03_015_-24_0_ODD.mrc MotionCorr/job002/frames/TS_03_015_-24_0.mrc MotionCorr/job002/frames/TS_03_015_-24_0.star     2.726784     0.000000     2.726784 CtfFind/job003/frames/TS_03_015_-24_0_PS.ctf:mrc 13740.999230 14752.400886   554.796875   145.335358     0.081781     7.026447     0.592440     -0.01181    -24.06714    85.211496    10.323301    22.532362     1.127350 
frames/TS_03_014_-21.0.mrc            8    -20.99890    85.000000    42.000000     -1.50000 MotionCorr/job002/frames/TS_03_014_-21_0_PS.mrc MotionCorr/job002/frames/TS_03_014_-21_0_EVN.mrc MotionCorr/job002/frames/TS_03_014_-21_0_ODD.mrc MotionCorr/job002/frames/TS_03_014_-21_0.mrc MotionCorr/job002/frames/TS_03_014_-21_0.star     2.414818     0.000000     2.414818 CtfFind/job003/frames/TS_03_014_-21_0_PS.ctf:mrc 14107.605437 14698.035257   566.877930   144.607859     0.080299     6.286821     0.662610     0.015790    -21.06199    85.213748    19.056429    52.903096     1.222891 
frames/TS_03_011_-18.0.mrc            8    -17.99880    85.000000    33.000000     -1.50000 MotionCorr/job002/frames/TS_03_011_-18_0_PS.mrc MotionCorr/job002/frames/TS_03_011_-18_0_EVN.mrc MotionCorr/job002/frames/TS_03_011_-18_0_ODD.mrc MotionCorr/job002/frames/TS_03_011_-18_0.mrc MotionCorr/job002/frames/TS_03_011_-18_0.star     2.602850     0.000000     2.602850 CtfFind/job003/frames/TS_03_011_-18_0_PS.ctf:mrc 14263.192792 14936.950158   726.788086   146.539995     0.079273     7.026447     0.824200 7.578224e-04    -18.07413    85.222224    14.285880    36.625315     1.268018 
frames/TS_03_010_-15.0.mrc            8    -14.99920    85.000000    30.000000     -1.50000 MotionCorr/job002/frames/TS_03_010_-15_0_PS.mrc MotionCorr/job002/frames/TS_03_010_-15_0_EVN.mrc MotionCorr/job002/frames/TS_03_010_-15_0_ODD.mrc MotionCorr/job002/frames/TS_03_010_-15_0.mrc MotionCorr/job002/frames/TS_03_010_-15_0.star     3.136864     0.000000     3.136864 CtfFind/job003/frames/TS_03_010_-15_0_PS.ctf:mrc 14333.105234 14764.265769   394.884766   138.737734     0.089302     6.022669     0.844510     0.020270    -15.04695    85.227018    19.461311    62.659231     1.299628 
frames/TS_03_007_-12.0.mrc            8    -11.99800    85.000000    21.000000     -1.50000 MotionCorr/job002/frames/TS_03_007_-12_0_PS.mrc MotionCorr/job002/frames/TS_03_007_-12_0_EVN.mrc MotionCorr/job002/frames/TS_03_007_-12_0_ODD.mrc MotionCorr/job002/frames/TS_03_007_-12_0.mrc MotionCorr/job002/frames/TS_03_007_-12_0.star     2.313651     0.000000     2.313651 CtfFind/job003/frames/TS_03_007_-12_0_PS.ctf:mrc 14251.465864 14842.719353   359.812500   143.335057     0.078866     5.733581     0.805790     -0.00365    -12.04760    85.234891    14.684541    53.375113     1.418060 
frames/TS_03_006_-9.0.mrc            8     -8.99890    85.000000    18.000000     -1.50000 MotionCorr/job002/frames/TS_03_006_-9_0_PS.mrc MotionCorr/job002/frames/TS_03_006_-9_0_EVN.mrc MotionCorr/job002/frames/TS_03_006_-9_0_ODD.mrc MotionCorr/job002/frames/TS_03_006_-9_0.mrc MotionCorr/job002/frames/TS_03_006_-9_0.star     2.740379     0.000000     2.740379 CtfFind/job003/frames/TS_03_006_-9_0_PS.ctf:mrc 14345.613470 14878.423946   464.789062   143.814745     0.076235     5.429527     0.739670     -0.01609     -9.02642    85.239090    18.489370    49.758590     1.478078 
frames/TS_03_003_-6.0.mrc            8     -5.99827    85.000000     9.000000     -1.50000 MotionCorr/job002/frames/TS_03_003_-6_0_PS.mrc MotionCorr/job002/frames/TS_03_003_-6_0_EVN.mrc MotionCorr/job002/frames/TS_03_003_-6_0_ODD.mrc MotionCorr/job002/frames/TS_03_003_-6_0.mrc MotionCorr/job002/frames/TS_03_003_-6_0.star     2.179822     0.000000     2.179822 CtfFind/job003/frames/TS_03_003_-6_0_PS.ctf:mrc 14388.214012 14873.373180   423.504883   143.790021     0.061769     5.193461     0.531500     -0.03631     -6.03602    85.248911    14.008708    53.576842     1.550844 
frames/TS_03_002_-3.0.mrc            8     -2.99863    85.000000     6.000000     -1.50000 MotionCorr/job002/frames/TS_03_002_-3_0_PS.mrc MotionCorr/job002/frames/TS_03_002_-3_0_EVN.mrc MotionCorr/job002/frames/TS_03_002_-3_0_ODD.mrc MotionCorr/job002/frames/TS_03_002_-3_0.mrc MotionCorr/job002/frames/TS_03_002_-3_0.star     1.817747     0.000000     1.817747 CtfFind/job003/frames/TS_03_002_-3_0_PS.ctf:mrc 14415.993078 14868.084408   554.088867   146.088737     0.066306     4.977066     0.697890     -0.04383     -3.04359    85.251030    14.564690    36.614715     1.506142 
frames/TS_03_000_0.0.mrc            8     0.001500    85.000000     0.000000     -1.50000 MotionCorr/job002/frames/TS_03_000_0_0_PS.mrc MotionCorr/job002/frames/TS_03_000_0_0_EVN.mrc MotionCorr/job002/frames/TS_03_000_0_0_ODD.mrc MotionCorr/job002/frames/TS_03_000_0_0.mrc MotionCorr/job002/frames/TS_03_000_0_0.star     4.072953     2.389154     1.683799 CtfFind/job003/frames/TS_03_000_0_0_PS.ctf:mrc 14439.237547 14904.888131   655.861328   148.737307     0.061578     4.875494     0.773580     -0.09771     -0.04736    85.260264    16.021784    50.897934     1.536178 
frames/TS_03_001_3.0.mrc            8     3.001130    85.000000     3.000000     -1.50000 MotionCorr/job002/frames/TS_03_001_3_0_PS.mrc MotionCorr/job002/frames/TS_03_001_3_0_EVN.mrc MotionCorr/job002/frames/TS_03_001_3_0_ODD.mrc MotionCorr/job002/frames/TS_03_001_3_0.mrc MotionCorr/job002/frames/TS_03_001_3_0.star     2.934302     0.000000     2.934302 CtfFind/job003/frames/TS_03_001_3_0_PS.ctf:mrc 14460.932015 14889.502079   414.947266   142.820261     0.074139     5.733581     0.409340     -0.06675     2.968883    85.268001    16.639541    69.152680     1.513681 
frames/TS_03_004_6.0.mrc            8     6.000760    85.000000    12.000000     -1.50000 MotionCorr/job002/frames/TS_03_004_6_0_PS.mrc MotionCorr/job002/frames/TS_03_004_6_0_EVN.mrc MotionCorr/job002/frames/TS_03_004_6_0_ODD.mrc MotionCorr/job002/frames/TS_03_004_6_0.mrc MotionCorr/job002/frames/TS_03_004_6_0.star     2.497861     0.000000     2.497861 CtfFind/job003/frames/TS_03_004_6_0_PS.ctf:mrc 14401.466230 14813.479443   293.609375   145.129628     0.075577     5.429527     0.752080     -0.01275     6.024360    85.268289    12.944955    44.972525     1.488615 
frames/TS_03_005_9.0.mrc            8     9.001400    85.000000    15.000000     -1.50000 MotionCorr/job002/frames/TS_03_005_9_0_PS.mrc MotionCorr/job002/frames/TS_03_005_9_0_EVN.mrc MotionCorr/job002/frames/TS_03_005_9_0_ODD.mrc MotionCorr/job002/frames/TS_03_005_9_0.mrc MotionCorr/job002/frames/TS_03_005_9_0.star     1.609453     0.000000     1.609453 CtfFind/job003/frames/TS_03_005_9_0_PS.ctf:mrc 14389.324538 14837.657933   381.895508   143.128242     0.066536     6.456735     0.729540     0.023057     9.043780    85.276020     8.434828    56.776643     1.430835 
frames/TS_03_008_12.0.mrc            8    12.000500    85.000000    24.000000     -1.50000 MotionCorr/job002/frames/TS_03_008_12_0_PS.mrc MotionCorr/job002/frames/TS_03_008_12_0_EVN.mrc MotionCorr/job002/frames/TS_03_008_12_0_ODD.mrc MotionCorr/job002/frames/TS_03_008_12_0.mrc MotionCorr/job002/frames/TS_03_008_12_0.star     3.120055     0.000000     3.120055 CtfFind/job003/frames/TS_03_008_12_0_PS.ctf:mrc 14371.847466 14841.555736   497.391602   138.224932     0.086996     6.232153     0.920330     0.021175    12.062645    85.281047     7.976472    31.902237     1.347576 
frames/TS_03_009_15.0.mrc            8    15.000700    85.000000    27.000000     -1.50000 MotionCorr/job002/frames/TS_03_009_15_0_PS.mrc MotionCorr/job002/frames/TS_03_009_15_0_EVN.mrc MotionCorr/job002/frames/TS_03_009_15_0_ODD.mrc MotionCorr/job002/frames/TS_03_009_15_0.mrc MotionCorr/job002/frames/TS_03_009_15_0.star     2.301584     0.000000     2.301584 CtfFind/job003/frames/TS_03_009_15_0_PS.ctf:mrc 14445.390260 14860.806164   196.554688   148.507284     0.071106     6.575207     0.769530     0.045229    15.057212    85.291165    10.575330    42.911462     1.313735 
frames/TS_03_012_18.0.mrc            8    18.000300    85.000000    36.000000     -1.50000 MotionCorr/job002/frames/TS_03_012_18_0_PS.mrc MotionCorr/job002/frames/TS_03_012_18_0_EVN.mrc MotionCorr/job002/frames/TS_03_012_18_0_ODD.mrc MotionCorr/job002/frames/TS_03_012_18_0.mrc MotionCorr/job002/frames/TS_03_012_18_0.star     2.646684     0.000000     2.646684 CtfFind/job003/frames/TS_03_012_18_0_PS.ctf:mrc 14379.227709 14819.805529   275.634766   145.653963     0.059765     6.761298     0.713570     0.064221    18.069853    85.302497     6.122232    23.893382     1.251277 
frames/TS_03_013_21.0.mrc            8    21.000900    85.000000    39.000000     -1.50000 MotionCorr/job002/frames/TS_03_013_21_0_PS.mrc MotionCorr/job002/frames/TS_03_013_21_0_EVN.mrc MotionCorr/job002/frames/TS_03_013_21_0_ODD.mrc MotionCorr/job002/frames/TS_03_013_21_0.mrc MotionCorr/job002/frames/TS_03_013_21_0.star     2.705364     0.000000     2.705364 CtfFind/job003/frames/TS_03_013_21_0_PS.ctf:mrc 14594.791216 14888.815102   179.557617   159.359996     0.066225     7.166976     0.886440     0.081215    21.047500    85.314919     7.670537    31.369295     1.170356 
frames/TS_03_016_24.0.mrc            8    24.000600    85.000000    48.000000     -1.50000 MotionCorr/job002/frames/TS_03_016_24_0_PS.mrc MotionCorr/job002/frames/TS_03_016_24_0_EVN.mrc MotionCorr/job002/frames/TS_03_016_24_0_ODD.mrc MotionCorr/job002/frames/TS_03_016_24_0.mrc MotionCorr/job002/frames/TS_03_016_24_0.star     2.614310     0.000000     2.614310 CtfFind/job003/frames/TS_03_016_24_0_PS.ctf:mrc 14396.103275 14900.430368   355.435547   151.537003     0.070183     7.963306     0.569710     0.079934    24.083445    85.321190     5.328124    27.879639     1.090652 
frames/TS_03_017_27.0.mrc            8    27.000700    85.000000    51.000000     -1.50000 MotionCorr/job002/frames/TS_03_017_27_0_PS.mrc MotionCorr/job002/frames/TS_03_017_27_0_EVN.mrc MotionCorr/job002/frames/TS_03_017_27_0_ODD.mrc MotionCorr/job002/frames/TS_03_017_27_0.mrc MotionCorr/job002/frames/TS_03_017_27_0.star     3.655325     0.000000     3.655325 CtfFind/job003/frames/TS_03_017_27_0_PS.ctf:mrc 14222.898734 14840.973430   483.606445   121.336949     0.065192     8.740214     1.192420     0.115872    27.059413    85.333608    10.882561    46.672996     1.003584 
frames/TS_03_020_30.0.mrc            8    30.000800    85.000000    60.000000     -1.50000 MotionCorr/job002/frames/TS_03_020_30_0_PS.mrc MotionCorr/job002/frames/TS_03_020_30_0_EVN.mrc MotionCorr/job002/frames/TS_03_020_30_0_ODD.mrc MotionCorr/job002/frames/TS_03_020_30_0.mrc MotionCorr/job002/frames/TS_03_020_30_0.star     2.856914     0.000000     2.856914 CtfFind/job003/frames/TS_03_020_30_0_PS.ctf:mrc 14570.865767 14883.987175   441.144531   135.835106     0.070988     8.532114     0.472590     0.110236    30.082590    85.357752     -3.48877    41.922303     0.989662 
frames/TS_03_021_33.0.mrc            8    33.001000    85.000000    63.000000     -1.50000 MotionCorr/job002/frames/TS_03_021_33_0_PS.mrc MotionCorr/job002/frames/TS_03_021_33_0_EVN.mrc MotionCorr/job002/frames/TS_03_021_33_0_ODD.mrc MotionCorr/job002/frames/TS_03_021_33_0.mrc MotionCorr/job002/frames/TS_03_021_33_0.star     3.391973     0.000000     3.391973 CtfFind/job003/frames/TS_03_021_33_0_PS.ctf:mrc 14306.363770 14550.934761 9.770000e-04   113.389711     0.070425     9.954133     0.465080     0.104611    33.088719    85.352198    12.588788    74.239179     0.885894 
frames/TS_03_024_36.0.mrc            8    36.000600    85.000000    72.000000     -1.50000 MotionCorr/job002/frames/TS_03_024_36_0_PS.mrc MotionCorr/job002/frames/TS_03_024_36_0_EVN.mrc MotionCorr/job002/frames/TS_03_024_36_0_ODD.mrc MotionCorr/job002/frames/TS_03_024_36_0.mrc MotionCorr/job002/frames/TS_03_024_36_0.star     3.601807     0.000000     3.601807 CtfFind/job003/frames/TS_03_024_36_0_PS.ctf:mrc 14813.154476 15369.050711   218.249023   155.071542     0.090294     8.848118     1.260370     0.164436    36.045097    85.377397     5.174432    72.055002     0.843166 
frames/TS_03_025_39.0.mrc            8    39.000700    85.000000    75.000000     -1.50000 MotionCorr/job002/frames/TS_03_025_39_0_PS.mrc MotionCorr/job002/frames/TS_03_025_39_0_EVN.mrc MotionCorr/job002/frames/TS_03_025_39_0_ODD.mrc MotionCorr/job002/frames/TS_03_025_39_0.mrc MotionCorr/job002/frames/TS_03_025_39_0.star     2.430764     0.000000     2.430764 CtfFind/job003/frames/TS_03_025_39_0_PS.ctf:mrc 14521.670512 14656.948567   131.612305   -139.93288     0.093119    11.026116     0.573320     0.182758    39.040275    85.412038    17.068717   104.437851     0.804710 
frames/TS_03_028_42.0.mrc            8    42.000900    85.000000    84.000000     -1.50000 MotionCorr/job002/frames/TS_03_028_42_0_PS.mrc MotionCorr/job002/frames/TS_03_028_42_0_EVN.mrc MotionCorr/job002/frames/TS_03_028_42_0_ODD.mrc MotionCorr/job002/frames/TS_03_028_42_0.mrc MotionCorr/job002/frames/TS_03_028_42_0.star     4.460118     0.000000     4.460118 CtfFind/job003/frames/TS_03_028_42_0_PS.ctf:mrc 14045.518469 14666.123332   210.600586   179.949429     0.087854    10.859054     0.604700     0.097973    42.067280    85.424189     -0.61567    96.582565     0.810450 
frames/TS_03_029_45.0.mrc            8    45.000500    85.000000    87.000000     -1.50000 MotionCorr/job002/frames/TS_03_029_45_0_PS.mrc MotionCorr/job002/frames/TS_03_029_45_0_EVN.mrc MotionCorr/job002/frames/TS_03_029_45_0_ODD.mrc MotionCorr/job002/frames/TS_03_029_45_0.mrc MotionCorr/job002/frames/TS_03_029_45_0.star     4.061861     0.000000     4.061861 CtfFind/job003/frames/TS_03_029_45_0_PS.ctf:mrc 14393.162329 15387.791099   159.059570   158.065338     0.144842    11.559638     0.594350     0.132894    45.059297    85.421032    17.435038   125.993155     0.656838 
frames/TS_03_032_48.0.mrc            8    47.999600    85.000000    96.000000     -1.50000 MotionCorr/job002/frames/TS_03_032_48_0_PS.mrc MotionCorr/job002/frames/TS_03_032_48_0_EVN.mrc MotionCorr/job002/frames/TS_03_032_48_0_ODD.mrc MotionCorr/job002/frames/TS_03_032_48_0.mrc MotionCorr/job002/frames/TS_03_032_48_0.star     3.930790     0.000000     3.930790 CtfFind/job003/frames/TS_03_032_48_0_PS.ctf:mrc 15045.203010 15215.995217   159.303711   138.578995     0.087733    10.094332     0.806360     0.154658    48.016231    85.486060     -1.25573   116.340648     0.603558 
frames/TS_03_033_51.0.mrc            8    50.999800    85.000000    99.000000     -1.50000 MotionCorr/job002/frames/TS_03_033_51_0_PS.mrc MotionCorr/job002/frames/TS_03_033_51_0_EVN.mrc MotionCorr/job002/frames/TS_03_033_51_0_ODD.mrc MotionCorr/job002/frames/TS_03_033_51_0.mrc MotionCorr/job002/frames/TS_03_033_51_0.star     3.402876     0.000000     3.402876 CtfFind/job003/frames/TS_03_033_51_0_PS.ctf:mrc 14457.057656 14658.373184    48.349609   113.783461     0.104601    25.000000     1.082720     0.194097    51.017635    85.518988    13.353415   146.823102     0.598130 
frames/TS_03_036_54.0.mrc            8    53.996900    85.000000   108.000000     -1.50000 MotionCorr/job002/frames/TS_03_036_54_0_PS.mrc MotionCorr/job002/frames/TS_03_036_54_0_EVN.mrc MotionCorr/job002/frames/TS_03_036_54_0_ODD.mrc MotionCorr/job002/frames/TS_03_036_54_0.mrc MotionCorr/job002/frames/TS_03_036_54_0.star     3.360161     0.000000     3.360161 CtfFind/job003/frames/TS_03_036_54_0_PS.ctf:mrc 14679.941472 15065.006243   104.427734   128.621208     0.133267    25.000000     0.507790     0.168883    54.007699    85.525708     -6.97559   140.082458     0.549514 
frames/TS_03_037_57.0.mrc            8    56.996000    85.000000   111.000000     -1.50000 MotionCorr/job002/frames/TS_03_037_57_0_PS.mrc MotionCorr/job002/frames/TS_03_037_57_0_EVN.mrc MotionCorr/job002/frames/TS_03_037_57_0_ODD.mrc MotionCorr/job002/frames/TS_03_037_57_0.mrc MotionCorr/job002/frames/TS_03_037_57_0.star     3.062455     0.000000     3.062455 CtfFind/job003/frames/TS_03_037_57_0_PS.ctf:mrc 14066.843794 14668.448096   208.624023   137.751553     0.111687     8.532114     0.553800     0.146711    56.930821    85.557296    13.522658   176.306746     0.471410 
frames/TS_03_040_60.0.mrc            8    59.998100    85.000000   120.000000     -1.50000 MotionCorr/job002/frames/TS_03_040_60_0_PS.mrc MotionCorr/job002/frames/TS_03_040_60_0_EVN.mrc MotionCorr/job002/frames/TS_03_040_60_0_ODD.mrc MotionCorr/job002/frames/TS_03_040_60_0.mrc MotionCorr/job002/frames/TS_03_040_60_0.star     4.056148     0.000000     4.056148 CtfFind/job003/frames/TS_03_040_60_0_PS.ctf:mrc 14611.972612 14984.087218    85.911133   129.819407     0.145422    25.000000     0.496110     0.233264    59.954216    85.622159     -4.84701   161.297680     0.464078 
 
