
# version 50001

data_TS_43

loop_ 
_rlnMicrographMovieName #1 
_rlnTomoTiltMovieFrameCount #2 
_rlnTomoNominalStageTiltAngle #3 
_rlnTomoNominalTiltAxisAngle #4 
_rlnMicrographPreExposure #5 
_rlnTomoNominalDefocus #6 
_rlnCtfPowerSpectrum #7 
_rlnMicrographNameEven #8 
_rlnMicrographNameOdd #9 
_rlnMicrographName #10 
_rlnMicrographMetadata #11 
_rlnAccumMotionTotal #12 
_rlnAccumMotionEarly #13 
_rlnAccumMotionLate #14 
_rlnCtfImage #15 
_rlnDefocusU #16 
_rlnDefocusV #17 
_rlnCtfAstigmatism #18 
_rlnDefocusAngle #19 
_rlnCtfFigureOfMerit #20 
_rlnCtfMaxResolution #21 
_rlnCtfIceRingDensity #22 
_rlnTomoXTilt #23 
_rlnTomoYTilt #24 
_rlnTomoZRot #25 
_rlnTomoXShiftAngst #26 
_rlnTomoYShiftAngst #27 
_rlnCtfScalefactor #28 
frames/TS_43_039_-60.0.mrc           10    -59.99910    85.000000   117.000000     -2.50000 MotionCorr/job002/frames/TS_43_039_-60_0_PS.mrc MotionCorr/job002/frames/TS_43_039_-60_0_EVN.mrc MotionCorr/job002/frames/TS_43_039_-60_0_ODD.mrc MotionCorr/job002/frames/TS_43_039_-60_0.mrc MotionCorr/job002/frames/TS_43_039_-60_0.star    16.206940     0.000000    16.206940 CtfFind/job003/frames/TS_43_039_-60_0_PS.ctf:mrc 26954.194765 27427.995772    72.912109   140.381133     0.101234    14.931199     0.610390     0.146710    -59.98543    85.179196    11.309580    45.985403     0.529430 
frames/TS_43_038_-57.0.mrc           10    -56.99900    85.000000   114.000000     -2.50000 MotionCorr/job002/frames/TS_43_038_-57_0_PS.mrc MotionCorr/job002/frames/TS_43_038_-57_0_EVN.mrc MotionCorr/job002/frames/TS_43_038_-57_0_ODD.mrc MotionCorr/job002/frames/TS_43_038_-57_0.mrc MotionCorr/job002/frames/TS_43_038_-57_0.star    15.545098     0.000000    15.545098 CtfFind/job003/frames/TS_43_038_-57_0_PS.ctf:mrc 26417.857222 26581.812290   148.404297   -179.46347     0.118246    13.782646     0.824470     0.146651    -56.97114    85.140849    22.005757    52.011812     0.575973 
frames/TS_43_035_-54.0.mrc           10    -53.99940    85.000000   105.000000     -2.50000 MotionCorr/job002/frames/TS_43_035_-54_0_PS.mrc MotionCorr/job002/frames/TS_43_035_-54_0_EVN.mrc MotionCorr/job002/frames/TS_43_035_-54_0_ODD.mrc MotionCorr/job002/frames/TS_43_035_-54_0.mrc MotionCorr/job002/frames/TS_43_035_-54_0.star     9.453412     0.000000     9.453412 CtfFind/job003/frames/TS_43_035_-54_0_PS.ctf:mrc 26497.052992 26684.339223   188.353516   157.869305     0.108487    14.052894     0.358210     0.137390    -53.99932    85.124135    13.939739    37.465261     0.659273 
frames/TS_43_034_-51.0.mrc           10    -51.00030    85.000000   102.000000     -2.50000 MotionCorr/job002/frames/TS_43_034_-51_0_PS.mrc MotionCorr/job002/frames/TS_43_034_-51_0_EVN.mrc MotionCorr/job002/frames/TS_43_034_-51_0_ODD.mrc MotionCorr/job002/frames/TS_43_034_-51_0.mrc MotionCorr/job002/frames/TS_43_034_-51_0.star     8.636927     0.000000     8.636927 CtfFind/job003/frames/TS_43_034_-51_0_PS.ctf:mrc 25958.045329 26250.992264    87.132812   133.992968     0.100523    15.580382     0.593780     0.079932    -50.95019    85.128621    21.166497    52.595467     0.608524 
frames/TS_43_031_-48.0.mrc           10    -47.99910    85.000000    93.000000     -2.50000 MotionCorr/job002/frames/TS_43_031_-48_0_PS.mrc MotionCorr/job002/frames/TS_43_031_-48_0_EVN.mrc MotionCorr/job002/frames/TS_43_031_-48_0_ODD.mrc MotionCorr/job002/frames/TS_43_031_-48_0.mrc MotionCorr/job002/frames/TS_43_031_-48_0.star     7.402671     0.000000     7.402671 CtfFind/job003/frames/TS_43_031_-48_0_PS.ctf:mrc 25698.336056 26229.345062    46.164062   152.552348     0.100539    10.696979     0.562810     0.075798    -48.00413    85.119218    11.552163    28.649053     0.749137 
frames/TS_43_030_-45.0.mrc           10    -45.00000    85.000000    90.000000     -2.50000 MotionCorr/job002/frames/TS_43_030_-45_0_PS.mrc MotionCorr/job002/frames/TS_43_030_-45_0_EVN.mrc MotionCorr/job002/frames/TS_43_030_-45_0_ODD.mrc MotionCorr/job002/frames/TS_43_030_-45_0.mrc MotionCorr/job002/frames/TS_43_030_-45_0.star     6.843554     0.000000     6.843554 CtfFind/job003/frames/TS_43_030_-45_0_PS.ctf:mrc 25290.715623 25696.370231    56.287109   155.424256     0.106071    11.376152     0.693640     0.099603    -44.99361    85.127187    19.287433    44.419447     0.766592 
frames/TS_43_027_-42.0.mrc           10    -41.99940    85.000000    81.000000     -2.50000 MotionCorr/job002/frames/TS_43_027_-42_0_PS.mrc MotionCorr/job002/frames/TS_43_027_-42_0_EVN.mrc MotionCorr/job002/frames/TS_43_027_-42_0_ODD.mrc MotionCorr/job002/frames/TS_43_027_-42_0.mrc MotionCorr/job002/frames/TS_43_027_-42_0.star     6.120841     0.000000     6.120841 CtfFind/job003/frames/TS_43_027_-42_0_PS.ctf:mrc 25627.699452 26059.624707    91.169922   159.166544     0.092008    10.859054     0.487080     0.075627    -42.01095    85.130213    12.332136    27.020617     0.823820 
frames/TS_43_026_-39.0.mrc           10    -38.99970    85.000000    78.000000     -2.50000 MotionCorr/job002/frames/TS_43_026_-39_0_PS.mrc MotionCorr/job002/frames/TS_43_026_-39_0_EVN.mrc MotionCorr/job002/frames/TS_43_026_-39_0_ODD.mrc MotionCorr/job002/frames/TS_43_026_-39_0.mrc MotionCorr/job002/frames/TS_43_026_-39_0.star     5.769808     0.000000     5.769808 CtfFind/job003/frames/TS_43_026_-39_0_PS.ctf:mrc 25185.379113 25280.944149   390.078125   111.114631     0.077061    10.539670     0.682360     0.077569    -39.00234    85.139133    16.619088    44.520524     0.856361 
frames/TS_43_023_-36.0.mrc           10    -36.00010    85.000000    69.000000     -2.50000 MotionCorr/job002/frames/TS_43_023_-36_0_PS.mrc MotionCorr/job002/frames/TS_43_023_-36_0_EVN.mrc MotionCorr/job002/frames/TS_43_023_-36_0_ODD.mrc MotionCorr/job002/frames/TS_43_023_-36_0.mrc MotionCorr/job002/frames/TS_43_023_-36_0.star     4.895332     0.000000     4.895332 CtfFind/job003/frames/TS_43_023_-36_0_PS.ctf:mrc 24881.825553 25370.723863   379.738281   133.350410     0.080132     9.817775     0.546200     0.069180    -36.03015    85.125099     3.978203    21.023173     0.959236 
frames/TS_43_022_-33.0.mrc           10    -33.00000    85.000000    66.000000     -2.50000 MotionCorr/job002/frames/TS_43_022_-33_0_PS.mrc MotionCorr/job002/frames/TS_43_022_-33_0_EVN.mrc MotionCorr/job002/frames/TS_43_022_-33_0_ODD.mrc MotionCorr/job002/frames/TS_43_022_-33_0.mrc MotionCorr/job002/frames/TS_43_022_-33_0.star     3.799344     0.000000     3.799344 CtfFind/job003/frames/TS_43_022_-33_0_PS.ctf:mrc 24733.196050 25371.088609   575.750000   122.416924     0.060713     9.555968     0.468210     0.091740    -33.03265    85.132795     7.808548    45.323065     0.961854 
frames/TS_43_019_-30.0.mrc           10    -29.99980    85.000000    57.000000     -2.50000 MotionCorr/job002/frames/TS_43_019_-30_0_PS.mrc MotionCorr/job002/frames/TS_43_019_-30_0_EVN.mrc MotionCorr/job002/frames/TS_43_019_-30_0_ODD.mrc MotionCorr/job002/frames/TS_43_019_-30_0.mrc MotionCorr/job002/frames/TS_43_019_-30_0.star     5.360931     0.000000     5.360931 CtfFind/job003/frames/TS_43_019_-30_0_PS.ctf:mrc 24956.184245 25062.474610   560.765625    71.161556     0.043107     9.685102     0.494240     0.068610    -30.02627    85.131706     -0.85321    18.362545     1.040843 
frames/TS_43_018_-27.0.mrc           10    -27.00070    85.000000    54.000000     -2.50000 MotionCorr/job002/frames/TS_43_018_-27_0_PS.mrc MotionCorr/job002/frames/TS_43_018_-27_0_EVN.mrc MotionCorr/job002/frames/TS_43_018_-27_0_ODD.mrc MotionCorr/job002/frames/TS_43_018_-27_0.mrc MotionCorr/job002/frames/TS_43_018_-27_0.star     3.866844     0.000000     3.866844 CtfFind/job003/frames/TS_43_018_-27_0_PS.ctf:mrc 24767.378636 25267.008382   153.384766   119.650337     0.061933     8.958720     0.649010     0.051092    -27.03365    85.141433     1.042679    43.174745     1.107658 
frames/TS_43_015_-24.0.mrc           10    -24.00060    85.000000    45.000000     -2.50000 MotionCorr/job002/frames/TS_43_015_-24_0_PS.mrc MotionCorr/job002/frames/TS_43_015_-24_0_EVN.mrc MotionCorr/job002/frames/TS_43_015_-24_0_ODD.mrc MotionCorr/job002/frames/TS_43_015_-24_0.mrc MotionCorr/job002/frames/TS_43_015_-24_0.star     4.421890     0.000000     4.421890 CtfFind/job003/frames/TS_43_015_-24_0_PS.ctf:mrc 24692.187984 25374.063194   182.968750   143.862976     0.049548     7.624442     0.529180     0.035271    -24.05853    85.148367     -5.07862    14.388953     1.211681 
frames/TS_43_014_-21.0.mrc           10    -21.00140    85.000000    42.000000     -2.50000 MotionCorr/job002/frames/TS_43_014_-21_0_PS.mrc MotionCorr/job002/frames/TS_43_014_-21_0_EVN.mrc MotionCorr/job002/frames/TS_43_014_-21_0_ODD.mrc MotionCorr/job002/frames/TS_43_014_-21_0.mrc MotionCorr/job002/frames/TS_43_014_-21_0.star     4.970441     0.000000     4.970441 CtfFind/job003/frames/TS_43_014_-21_0_PS.ctf:mrc 24891.221992 25100.154310   330.720703   116.835502     0.066622     6.825691     0.626310     0.019684    -21.08579    85.148276     -0.02063    34.783360     1.191411 
frames/TS_43_011_-18.0.mrc           10    -18.00330    85.000000    33.000000     -2.50000 MotionCorr/job002/frames/TS_43_011_-18_0_PS.mrc MotionCorr/job002/frames/TS_43_011_-18_0_EVN.mrc MotionCorr/job002/frames/TS_43_011_-18_0_ODD.mrc MotionCorr/job002/frames/TS_43_011_-18_0.mrc MotionCorr/job002/frames/TS_43_011_-18_0.star     5.192582     0.000000     5.192582 CtfFind/job003/frames/TS_43_011_-18_0_PS.ctf:mrc 24749.138564 25231.623962   473.890625   130.341568     0.068067     6.698108     0.651080     0.006444    -18.06732    85.152962     2.544313    20.054815     1.361154 
frames/TS_43_010_-15.0.mrc           10    -15.00370    85.000000    30.000000     -2.50000 MotionCorr/job002/frames/TS_43_010_-15_0_PS.mrc MotionCorr/job002/frames/TS_43_010_-15_0_EVN.mrc MotionCorr/job002/frames/TS_43_010_-15_0_ODD.mrc MotionCorr/job002/frames/TS_43_010_-15_0.mrc MotionCorr/job002/frames/TS_43_010_-15_0.star     3.478029     0.000000     3.478029 CtfFind/job003/frames/TS_43_010_-15_0_PS.ctf:mrc 24834.190467 25236.296547    88.986328   125.764483     0.061613     6.825691     0.625790     0.021167    -15.06189    85.155384     7.020234    37.023731     1.392370 
frames/TS_43_007_-12.0.mrc           10    -11.99900    85.000000    21.000000     -2.50000 MotionCorr/job002/frames/TS_43_007_-12_0_PS.mrc MotionCorr/job002/frames/TS_43_007_-12_0_EVN.mrc MotionCorr/job002/frames/TS_43_007_-12_0_ODD.mrc MotionCorr/job002/frames/TS_43_007_-12_0.mrc MotionCorr/job002/frames/TS_43_007_-12_0.star     3.865264     0.000000     3.865264 CtfFind/job003/frames/TS_43_007_-12_0_PS.ctf:mrc 24866.469923 25130.793187   588.361328   140.927981     0.049256     7.096016     0.756730     0.003027    -12.05330    85.162197     4.880409    33.191075     1.465795 
frames/TS_43_006_-9.0.mrc           10     -8.99890    85.000000    18.000000     -2.50000 MotionCorr/job002/frames/TS_43_006_-9_0_PS.mrc MotionCorr/job002/frames/TS_43_006_-9_0_EVN.mrc MotionCorr/job002/frames/TS_43_006_-9_0_ODD.mrc MotionCorr/job002/frames/TS_43_006_-9_0.mrc MotionCorr/job002/frames/TS_43_006_-9_0.star     3.285717     0.000000     3.285717 CtfFind/job003/frames/TS_43_006_-9_0_PS.ctf:mrc 24908.227744 25138.057234   337.947266   141.612677     0.068861     5.599200     0.734410     -0.01079     -9.04854    85.166913     5.530067    22.452460     1.525888 
frames/TS_43_003_-6.0.mrc           10     -5.99927    85.000000     9.000000     -2.50000 MotionCorr/job002/frames/TS_43_003_-6_0_PS.mrc MotionCorr/job002/frames/TS_43_003_-6_0_EVN.mrc MotionCorr/job002/frames/TS_43_003_-6_0_ODD.mrc MotionCorr/job002/frames/TS_43_003_-6_0.mrc MotionCorr/job002/frames/TS_43_003_-6_0.star     3.384419     0.000000     3.384419 CtfFind/job003/frames/TS_43_003_-6_0_PS.ctf:mrc 24883.408972 25209.972123   588.732422   141.731349     0.061944     6.125620     0.777030     -0.01038     -6.02483    85.170595     5.811343    38.540884     1.530089 
frames/TS_43_002_-3.0.mrc           10     -2.99913    85.000000     6.000000     -2.50000 MotionCorr/job002/frames/TS_43_002_-3_0_PS.mrc MotionCorr/job002/frames/TS_43_002_-3_0_EVN.mrc MotionCorr/job002/frames/TS_43_002_-3_0_ODD.mrc MotionCorr/job002/frames/TS_43_002_-3_0.mrc MotionCorr/job002/frames/TS_43_002_-3_0.star     3.167235     0.000000     3.167235 CtfFind/job003/frames/TS_43_002_-3_0_PS.ctf:mrc 24914.581959 25194.147737   112.949219   136.220551     0.066759     5.826810     0.582620     -0.01037     -3.01414    85.175467     6.526635    14.507207     1.560013 
frames/TS_43_000_0.0.mrc           10     0.000000    85.000000     0.000000     -2.50000 MotionCorr/job002/frames/TS_43_000_0_0_PS.mrc MotionCorr/job002/frames/TS_43_000_0_0_EVN.mrc MotionCorr/job002/frames/TS_43_000_0_0_ODD.mrc MotionCorr/job002/frames/TS_43_000_0_0.mrc MotionCorr/job002/frames/TS_43_000_0_0.star     2.810945     0.896793     1.914152 CtfFind/job003/frames/TS_43_000_0_0_PS.ctf:mrc 24835.100895 25125.545498   232.798828   139.809454     0.062880     5.269835     0.692870     -0.01071     -0.02758    85.184753     -1.86490     -4.52909     1.462481 
frames/TS_43_001_3.0.mrc           10     3.000130    85.000000     3.000000     -2.50000 MotionCorr/job002/frames/TS_43_001_3_0_PS.mrc MotionCorr/job002/frames/TS_43_001_3_0_EVN.mrc MotionCorr/job002/frames/TS_43_001_3_0_ODD.mrc MotionCorr/job002/frames/TS_43_001_3_0.mrc MotionCorr/job002/frames/TS_43_001_3_0.star     3.184465     0.000000     3.184465 CtfFind/job003/frames/TS_43_001_3_0_PS.ctf:mrc 24773.691495 25097.266835   178.857422   134.812824     0.064948     5.688076     0.706130 -9.35391e-04     3.006161    85.188556     0.473101    -24.65048     1.464688 
frames/TS_43_004_6.0.mrc           10     5.999270    85.000000    12.000000     -2.50000 MotionCorr/job002/frames/TS_43_004_6_0_PS.mrc MotionCorr/job002/frames/TS_43_004_6_0_EVN.mrc MotionCorr/job002/frames/TS_43_004_6_0_ODD.mrc MotionCorr/job002/frames/TS_43_004_6_0.mrc MotionCorr/job002/frames/TS_43_004_6_0.star     2.978147     0.000000     2.978147 CtfFind/job003/frames/TS_43_004_6_0_PS.ctf:mrc 24776.478325 25096.034866   282.867188   133.458160     0.076066     5.826810     0.567600     0.009954     6.065274    85.196586     -2.29877    -38.59787     1.549757 
frames/TS_43_005_9.0.mrc           10     8.998400    85.000000    15.000000     -2.50000 MotionCorr/job002/frames/TS_43_005_9_0_PS.mrc MotionCorr/job002/frames/TS_43_005_9_0_EVN.mrc MotionCorr/job002/frames/TS_43_005_9_0_ODD.mrc MotionCorr/job002/frames/TS_43_005_9_0.mrc MotionCorr/job002/frames/TS_43_005_9_0.star     3.477681     0.000000     3.477681 CtfFind/job003/frames/TS_43_005_9_0_PS.ctf:mrc 24843.082781 25170.817269   166.478516   138.147683     0.070367     5.923120     0.569470     0.015027     9.078752    85.203005     -0.53688    -23.80175     1.565751 
frames/TS_43_008_12.0.mrc           10    11.999000    85.000000    24.000000     -2.50000 MotionCorr/job002/frames/TS_43_008_12_0_PS.mrc MotionCorr/job002/frames/TS_43_008_12_0_EVN.mrc MotionCorr/job002/frames/TS_43_008_12_0_ODD.mrc MotionCorr/job002/frames/TS_43_008_12_0.mrc MotionCorr/job002/frames/TS_43_008_12_0.star     3.335631     0.000000     3.335631 CtfFind/job003/frames/TS_43_008_12_0_PS.ctf:mrc 24845.353813 25112.278338   343.832031   133.986429     0.074413     6.515432     0.543050     0.014073    12.116848    85.209585     -1.73890    -39.77066     1.489772 
frames/TS_43_009_15.0.mrc           10    15.000200    85.000000    27.000000     -2.50000 MotionCorr/job002/frames/TS_43_009_15_0_PS.mrc MotionCorr/job002/frames/TS_43_009_15_0_EVN.mrc MotionCorr/job002/frames/TS_43_009_15_0_ODD.mrc MotionCorr/job002/frames/TS_43_009_15_0.mrc MotionCorr/job002/frames/TS_43_009_15_0.star     3.416277     0.000000     3.416277 CtfFind/job003/frames/TS_43_009_15_0_PS.ctf:mrc 24691.784302 25110.796790   392.593750   131.465293     0.086109     6.456735     0.724480     0.022417    15.117572    85.209321     -4.22148    -21.84033     1.435348 
frames/TS_43_012_18.0.mrc           10    18.000800    85.000000    36.000000     -2.50000 MotionCorr/job002/frames/TS_43_012_18_0_PS.mrc MotionCorr/job002/frames/TS_43_012_18_0_EVN.mrc MotionCorr/job002/frames/TS_43_012_18_0_ODD.mrc MotionCorr/job002/frames/TS_43_012_18_0.mrc MotionCorr/job002/frames/TS_43_012_18_0.star     3.552104     0.000000     3.552104 CtfFind/job003/frames/TS_43_012_18_0_PS.ctf:mrc 24630.952272 25093.709798   227.203125   135.883773     0.083819     6.891323     0.691180     0.028050    18.136212    85.216678     -4.16512    -44.27836     1.342319 
frames/TS_43_013_21.0.mrc           10    20.999900    85.000000    39.000000     -2.50000 MotionCorr/job002/frames/TS_43_013_21_0_PS.mrc MotionCorr/job002/frames/TS_43_013_21_0_EVN.mrc MotionCorr/job002/frames/TS_43_013_21_0_ODD.mrc MotionCorr/job002/frames/TS_43_013_21_0.mrc MotionCorr/job002/frames/TS_43_013_21_0.star     3.772947     0.000000     3.772947 CtfFind/job003/frames/TS_43_013_21_0_PS.ctf:mrc 24885.114526 25027.534480   616.460938   124.476601     0.071382     7.313241     0.628430     0.086698    21.155177    85.237143     -5.70010    -43.90560     1.298746 
frames/TS_43_016_24.0.mrc           10    23.999600    85.000000    48.000000     -2.50000 MotionCorr/job002/frames/TS_43_016_24_0_PS.mrc MotionCorr/job002/frames/TS_43_016_24_0_EVN.mrc MotionCorr/job002/frames/TS_43_016_24_0_ODD.mrc MotionCorr/job002/frames/TS_43_016_24_0.mrc MotionCorr/job002/frames/TS_43_016_24_0.star     3.618342     0.000000     3.618342 CtfFind/job003/frames/TS_43_016_24_0_PS.ctf:mrc 24704.581923 25201.924450   170.056641   143.194584     0.064698     7.166976     0.649240     0.101915    24.179526    85.255416     -9.16307    -42.26411     1.261001 
frames/TS_43_017_27.0.mrc           10    26.999700    85.000000    51.000000     -2.50000 MotionCorr/job002/frames/TS_43_017_27_0_PS.mrc MotionCorr/job002/frames/TS_43_017_27_0_EVN.mrc MotionCorr/job002/frames/TS_43_017_27_0_ODD.mrc MotionCorr/job002/frames/TS_43_017_27_0.mrc MotionCorr/job002/frames/TS_43_017_27_0.star     3.617766     0.000000     3.617766 CtfFind/job003/frames/TS_43_017_27_0_PS.ctf:mrc 24413.277479 25415.442731   420.746094   162.697986     0.081374     8.052782     0.950310     0.090007    27.178292    85.264192     -8.54657    -34.22659     1.177977 
frames/TS_43_020_30.0.mrc           10    29.999800    85.000000    60.000000     -2.50000 MotionCorr/job002/frames/TS_43_020_30_0_PS.mrc MotionCorr/job002/frames/TS_43_020_30_0_EVN.mrc MotionCorr/job002/frames/TS_43_020_30_0_ODD.mrc MotionCorr/job002/frames/TS_43_020_30_0.mrc MotionCorr/job002/frames/TS_43_020_30_0.star     4.117562     0.000000     4.117562 CtfFind/job003/frames/TS_43_020_30_0_PS.ctf:mrc 24792.204661 24995.958869   119.605469   124.551979     0.086438     9.188430     0.669700     0.099371    30.144873    85.265559    -13.02635    -43.10624     1.108210 
frames/TS_43_021_33.0.mrc           10    33.000000    85.000000    63.000000     -2.50000 MotionCorr/job002/frames/TS_43_021_33_0_PS.mrc MotionCorr/job002/frames/TS_43_021_33_0_EVN.mrc MotionCorr/job002/frames/TS_43_021_33_0_ODD.mrc MotionCorr/job002/frames/TS_43_021_33_0.mrc MotionCorr/job002/frames/TS_43_021_33_0.star     4.916295     0.000000     4.916295 CtfFind/job003/frames/TS_43_021_33_0_PS.ctf:mrc 24148.716835 25051.478242   100.339844   136.627892     0.070019     8.740214     0.724740     0.119314    33.182302    85.280921     -8.37075    -31.04139     1.143995 
frames/TS_43_024_36.0.mrc           10    35.999600    85.000000    72.000000     -2.50000 MotionCorr/job002/frames/TS_43_024_36_0_PS.mrc MotionCorr/job002/frames/TS_43_024_36_0_EVN.mrc MotionCorr/job002/frames/TS_43_024_36_0_ODD.mrc MotionCorr/job002/frames/TS_43_024_36_0.mrc MotionCorr/job002/frames/TS_43_024_36_0.star     5.823372     0.000000     5.823372 CtfFind/job003/frames/TS_43_024_36_0_PS.ctf:mrc 24117.805763 24980.113852   271.441406   108.122645     0.112629     9.685102     0.672340     0.126377    36.171083    85.301199    -17.37856    -52.88912     0.984275 
frames/TS_43_025_39.0.mrc           10    38.999200    85.000000    75.000000     -2.50000 MotionCorr/job002/frames/TS_43_025_39_0_PS.mrc MotionCorr/job002/frames/TS_43_025_39_0_EVN.mrc MotionCorr/job002/frames/TS_43_025_39_0_ODD.mrc MotionCorr/job002/frames/TS_43_025_39_0.mrc MotionCorr/job002/frames/TS_43_025_39_0.star     4.309618     0.000000     4.309618 CtfFind/job003/frames/TS_43_025_39_0_PS.ctf:mrc 24641.099856 24879.647655   266.675781   176.084353     0.097874     8.958720     0.485110     0.152723    39.205981    85.305212     -4.72440    -29.81448     0.961406 
frames/TS_43_028_42.0.mrc           10    41.999400    85.000000    84.000000     -2.50000 MotionCorr/job002/frames/TS_43_028_42_0_PS.mrc MotionCorr/job002/frames/TS_43_028_42_0_EVN.mrc MotionCorr/job002/frames/TS_43_028_42_0_ODD.mrc MotionCorr/job002/frames/TS_43_028_42_0.mrc MotionCorr/job002/frames/TS_43_028_42_0.star     4.040794     0.000000     4.040794 CtfFind/job003/frames/TS_43_028_42_0_PS.ctf:mrc 24647.438978 25666.923053   116.673828   164.011955     0.082902     9.555968     0.634540     0.205961    42.188002    85.344511    -17.94369    -50.53243     0.903944 
frames/TS_43_029_45.0.mrc           10    44.999000    85.000000    87.000000     -2.50000 MotionCorr/job002/frames/TS_43_029_45_0_PS.mrc MotionCorr/job002/frames/TS_43_029_45_0_EVN.mrc MotionCorr/job002/frames/TS_43_029_45_0_ODD.mrc MotionCorr/job002/frames/TS_43_029_45_0.mrc MotionCorr/job002/frames/TS_43_029_45_0.star     4.307779     0.000000     4.307779 CtfFind/job003/frames/TS_43_029_45_0_PS.ctf:mrc 24849.609194 25473.572095   117.291016   138.715354     0.105520     9.817775     0.607800     0.185447    45.154604    85.346888     -3.40661    -33.73479     0.910285 
frames/TS_43_032_48.0.mrc           10    47.997100    85.000000    96.000000     -2.50000 MotionCorr/job002/frames/TS_43_032_48_0_PS.mrc MotionCorr/job002/frames/TS_43_032_48_0_EVN.mrc MotionCorr/job002/frames/TS_43_032_48_0_ODD.mrc MotionCorr/job002/frames/TS_43_032_48_0.mrc MotionCorr/job002/frames/TS_43_032_48_0.star     3.090059     0.000000     3.090059 CtfFind/job003/frames/TS_43_032_48_0_PS.ctf:mrc 24905.774144 25510.001297   178.550781   129.007641     0.157173    11.026116     0.630040     0.250330    48.165767    85.386001    -22.56569    -56.99749     0.839964 
frames/TS_43_033_51.0.mrc           10    50.996300    85.000000    99.000000     -2.50000 MotionCorr/job002/frames/TS_43_033_51_0_PS.mrc MotionCorr/job002/frames/TS_43_033_51_0_EVN.mrc MotionCorr/job002/frames/TS_43_033_51_0_ODD.mrc MotionCorr/job002/frames/TS_43_033_51_0.mrc MotionCorr/job002/frames/TS_43_033_51_0.star     5.632723     0.000000     5.632723 CtfFind/job003/frames/TS_43_033_51_0_PS.ctf:mrc 24741.008614 25413.871029   185.080078   113.769092     0.100378    11.944960     0.412290     0.263225    51.180526    85.399392     -7.68188    -34.35781     0.810890 
frames/TS_43_036_54.0.mrc           10    53.996900    85.000000   108.000000     -2.50000 MotionCorr/job002/frames/TS_43_036_54_0_PS.mrc MotionCorr/job002/frames/TS_43_036_54_0_EVN.mrc MotionCorr/job002/frames/TS_43_036_54_0_ODD.mrc MotionCorr/job002/frames/TS_43_036_54_0.mrc MotionCorr/job002/frames/TS_43_036_54_0.star     3.820902     0.000000     3.820902 CtfFind/job003/frames/TS_43_036_54_0_PS.ctf:mrc 25212.974894 25265.912646   101.689453   153.858191     0.150460    12.573642     0.488930     0.317717    54.172927    85.437867    -23.37799    -60.42868     0.767577 
frames/TS_43_037_57.0.mrc           10    56.996000    85.000000   111.000000     -2.50000 MotionCorr/job002/frames/TS_43_037_57_0_PS.mrc MotionCorr/job002/frames/TS_43_037_57_0_EVN.mrc MotionCorr/job002/frames/TS_43_037_57_0_ODD.mrc MotionCorr/job002/frames/TS_43_037_57_0.mrc MotionCorr/job002/frames/TS_43_037_57_0.star     7.472044     0.000000     7.472044 CtfFind/job003/frames/TS_43_037_57_0_PS.ctf:mrc 24935.634604 25172.493044    30.246094   141.630487     0.158437    13.272177     0.996970     0.397901    57.171929    85.509810     -9.51301    -45.92402     0.624849 
frames/TS_43_040_60.0.mrc           10    59.996200    85.000000   120.000000     -2.50000 MotionCorr/job002/frames/TS_43_040_60_0_PS.mrc MotionCorr/job002/frames/TS_43_040_60_0_EVN.mrc MotionCorr/job002/frames/TS_43_040_60_0_ODD.mrc MotionCorr/job002/frames/TS_43_040_60_0.mrc MotionCorr/job002/frames/TS_43_040_60_0.star     5.212197     0.000000     5.212197 CtfFind/job003/frames/TS_43_040_60_0_PS.ctf:mrc 25233.990047 25266.177109   119.343750    47.431055     0.192743    15.248884     0.518320     0.453394    60.213676    85.548972    -29.24892    -79.94040     0.542233 
 
