
# version 50001

data_TS_54

loop_ 
_rlnMicrographMovieName #1 
_rlnTomoTiltMovieFrameCount #2 
_rlnTomoNominalStageTiltAngle #3 
_rlnTomoNominalTiltAxisAngle #4 
_rlnMicrographPreExposure #5 
_rlnTomoNominalDefocus #6 
_rlnCtfPowerSpectrum #7 
_rlnMicrographNameEven #8 
_rlnMicrographNameOdd #9 
_rlnMicrographName #10 
_rlnMicrographMetadata #11 
_rlnAccumMotionTotal #12 
_rlnAccumMotionEarly #13 
_rlnAccumMotionLate #14 
_rlnCtfImage #15 
_rlnDefocusU #16 
_rlnDefocusV #17 
_rlnCtfAstigmatism #18 
_rlnDefocusAngle #19 
_rlnCtfFigureOfMerit #20 
_rlnCtfMaxResolution #21 
_rlnCtfIceRingDensity #22 
_rlnTomoXTilt #23 
_rlnTomoYTilt #24 
_rlnTomoZRot #25 
_rlnTomoXShiftAngst #26 
_rlnTomoYShiftAngst #27 
_rlnCtfScalefactor #28 
frames/TS_54_039_-60.0.mrc           10    -59.99910    85.000000   117.000000     -1.50000 MotionCorr/job002/frames/TS_54_039_-60_0_PS.mrc MotionCorr/job002/frames/TS_54_039_-60_0_EVN.mrc MotionCorr/job002/frames/TS_54_039_-60_0_ODD.mrc MotionCorr/job002/frames/TS_54_039_-60_0.mrc MotionCorr/job002/frames/TS_54_039_-60_0.star    15.025143     0.000000    15.025143 CtfFind/job003/frames/TS_54_039_-60_0_PS.ctf:mrc 17901.099493 17963.306509    42.291016   163.952965     0.128431    12.573642     1.218770     0.942330    -54.79166    90.950634   -351.07671  -1045.68646     -0.12819 
frames/TS_54_038_-57.0.mrc           10    -56.99900    85.000000   114.000000     -1.50000 MotionCorr/job002/frames/TS_54_038_-57_0_PS.mrc MotionCorr/job002/frames/TS_54_038_-57_0_EVN.mrc MotionCorr/job002/frames/TS_54_038_-57_0_ODD.mrc MotionCorr/job002/frames/TS_54_038_-57_0.mrc MotionCorr/job002/frames/TS_54_038_-57_0.star    15.521387     0.000000    15.521387 CtfFind/job003/frames/TS_54_038_-57_0_PS.ctf:mrc 16611.927065 16790.096242   109.835938   150.409470     0.125754    25.000000     0.590680     0.216885    -56.39164    69.291176    82.414904   -236.42964     -0.07976 
frames/TS_54_035_-54.0.mrc           10    -53.99940    85.000000   105.000000     -1.50000 MotionCorr/job002/frames/TS_54_035_-54_0_PS.mrc MotionCorr/job002/frames/TS_54_035_-54_0_EVN.mrc MotionCorr/job002/frames/TS_54_035_-54_0_ODD.mrc MotionCorr/job002/frames/TS_54_035_-54_0.mrc MotionCorr/job002/frames/TS_54_035_-54_0.star    12.397099     0.000000    12.397099 CtfFind/job003/frames/TS_54_035_-54_0_PS.ctf:mrc 16154.032010 16260.268032    98.336914    90.153484     0.141127    25.000000     0.655740     0.306768    -53.64720    82.910108     0.426621   -167.99952     0.036310 
frames/TS_54_034_-51.0.mrc           10    -50.99930    85.000000   102.000000     -1.50000 MotionCorr/job002/frames/TS_54_034_-51_0_PS.mrc MotionCorr/job002/frames/TS_54_034_-51_0_EVN.mrc MotionCorr/job002/frames/TS_54_034_-51_0_ODD.mrc MotionCorr/job002/frames/TS_54_034_-51_0.mrc MotionCorr/job002/frames/TS_54_034_-51_0.star    12.299811     0.000000    12.299811 CtfFind/job003/frames/TS_54_034_-51_0_PS.ctf:mrc 15594.077578 15799.771997   182.346680   -150.37315     0.163578    11.559638     1.139510     -0.24758    -51.28824    84.764625    -15.29152   -124.16336     0.486382 
frames/TS_54_031_-48.0.mrc           10    -47.99960    85.000000    93.000000     -1.50000 MotionCorr/job002/frames/TS_54_031_-48_0_PS.mrc MotionCorr/job002/frames/TS_54_031_-48_0_EVN.mrc MotionCorr/job002/frames/TS_54_031_-48_0_ODD.mrc MotionCorr/job002/frames/TS_54_031_-48_0.mrc MotionCorr/job002/frames/TS_54_031_-48_0.star     9.515987     0.000000     9.515987 CtfFind/job003/frames/TS_54_031_-48_0_PS.ctf:mrc 15716.400246 16022.665535    87.428711   -178.44238     0.100363    10.539670     0.870450     -0.21533    -48.21108    84.892947     -9.99641   -111.25904     0.759672 
frames/TS_54_030_-45.0.mrc           10    -45.00000    85.000000    90.000000     -1.50000 MotionCorr/job002/frames/TS_54_030_-45_0_PS.mrc MotionCorr/job002/frames/TS_54_030_-45_0_EVN.mrc MotionCorr/job002/frames/TS_54_030_-45_0_ODD.mrc MotionCorr/job002/frames/TS_54_030_-45_0.mrc MotionCorr/job002/frames/TS_54_030_-45_0.star    10.815727     0.000000    10.815727 CtfFind/job003/frames/TS_54_030_-45_0_PS.ctf:mrc 15667.840385 15792.634019    85.271484   136.420310     0.154878    10.539670     0.768430     -0.24685    -45.27066    84.997370     -5.41968    -89.25646     0.802567 
frames/TS_54_027_-42.0.mrc           10    -42.00040    85.000000    81.000000     -1.50000 MotionCorr/job002/frames/TS_54_027_-42_0_PS.mrc MotionCorr/job002/frames/TS_54_027_-42_0_EVN.mrc MotionCorr/job002/frames/TS_54_027_-42_0_ODD.mrc MotionCorr/job002/frames/TS_54_027_-42_0.mrc MotionCorr/job002/frames/TS_54_027_-42_0.star     8.590184     0.000000     8.590184 CtfFind/job003/frames/TS_54_027_-42_0_PS.ctf:mrc 15680.460453 16086.440734   166.293945   168.289488     0.125000    10.539670     0.725910     -0.21178    -42.28577    85.011153     -0.74789    -70.29109     0.822682 
frames/TS_54_026_-39.0.mrc           10    -39.00020    85.000000    78.000000     -1.50000 MotionCorr/job002/frames/TS_54_026_-39_0_PS.mrc MotionCorr/job002/frames/TS_54_026_-39_0_EVN.mrc MotionCorr/job002/frames/TS_54_026_-39_0_ODD.mrc MotionCorr/job002/frames/TS_54_026_-39_0.mrc MotionCorr/job002/frames/TS_54_026_-39_0.star     8.366590     0.000000     8.366590 CtfFind/job003/frames/TS_54_026_-39_0_PS.ctf:mrc 15525.050263 15804.421988   143.519531   141.217901     0.117415    11.559638     0.662560     -0.26395    -39.32190    85.063893     6.856267    -53.24703     0.761094 
frames/TS_54_023_-36.0.mrc           10    -36.00010    85.000000    69.000000     -1.50000 MotionCorr/job002/frames/TS_54_023_-36_0_PS.mrc MotionCorr/job002/frames/TS_54_023_-36_0_EVN.mrc MotionCorr/job002/frames/TS_54_023_-36_0_ODD.mrc MotionCorr/job002/frames/TS_54_023_-36_0.mrc MotionCorr/job002/frames/TS_54_023_-36_0.star     7.357381     0.000000     7.357381 CtfFind/job003/frames/TS_54_023_-36_0_PS.ctf:mrc 15068.085773 15676.239690   288.270508   -154.86001     0.090527     9.817775     0.500270     -0.16645    -36.31681    85.040390     -3.64166    -55.65643     0.977454 
frames/TS_54_022_-33.0.mrc           10    -32.99950    85.000000    66.000000     -1.50000 MotionCorr/job002/frames/TS_54_022_-33_0_PS.mrc MotionCorr/job002/frames/TS_54_022_-33_0_EVN.mrc MotionCorr/job002/frames/TS_54_022_-33_0_ODD.mrc MotionCorr/job002/frames/TS_54_022_-33_0.mrc MotionCorr/job002/frames/TS_54_022_-33_0.star     8.160680     0.000000     8.160680 CtfFind/job003/frames/TS_54_022_-33_0_PS.ctf:mrc 15062.008264 15660.836444   294.715820   179.508997     0.103930     8.532114     0.868000     -0.19053    -33.32433    85.044512     -6.42381    -46.79218     0.995309 
frames/TS_54_019_-30.0.mrc           10    -30.00030    85.000000    57.000000     -1.50000 MotionCorr/job002/frames/TS_54_019_-30_0_PS.mrc MotionCorr/job002/frames/TS_54_019_-30_0_EVN.mrc MotionCorr/job002/frames/TS_54_019_-30_0_ODD.mrc MotionCorr/job002/frames/TS_54_019_-30_0.mrc MotionCorr/job002/frames/TS_54_019_-30_0.star     6.365004     0.000000     6.365004 CtfFind/job003/frames/TS_54_019_-30_0_PS.ctf:mrc 15241.773018 15309.484681   301.435547   135.279959     0.092739     9.430231     0.658210     -0.14987    -30.26636    85.041035    -11.36074    -41.95683     1.081297 
frames/TS_54_018_-27.0.mrc           10    -27.00170    85.000000    54.000000     -1.50000 MotionCorr/job002/frames/TS_54_018_-27_0_PS.mrc MotionCorr/job002/frames/TS_54_018_-27_0_EVN.mrc MotionCorr/job002/frames/TS_54_018_-27_0_ODD.mrc MotionCorr/job002/frames/TS_54_018_-27_0.mrc MotionCorr/job002/frames/TS_54_018_-27_0.star     7.058289     0.000000     7.058289 CtfFind/job003/frames/TS_54_018_-27_0_PS.ctf:mrc 14898.957088 15426.299585   325.508789   -167.47547     0.086891     9.072121     0.527930     -0.18300    -27.27542    85.061688    -17.52473    -37.43610     1.088904 
frames/TS_54_015_-24.0.mrc           10    -24.00010    85.000000    45.000000     -1.50000 MotionCorr/job002/frames/TS_54_015_-24_0_PS.mrc MotionCorr/job002/frames/TS_54_015_-24_0_EVN.mrc MotionCorr/job002/frames/TS_54_015_-24_0_ODD.mrc MotionCorr/job002/frames/TS_54_015_-24_0.mrc MotionCorr/job002/frames/TS_54_015_-24_0.star     6.120384     0.000000     6.120384 CtfFind/job003/frames/TS_54_015_-24_0_PS.ctf:mrc 15087.013198 15244.075442   771.327148    98.222420     0.071205     7.388635     0.564480     -0.18528    -24.22896    85.065789    -20.18922    -35.93510     1.334577 
frames/TS_54_014_-21.0.mrc           10    -21.00040    85.000000    42.000000     -1.50000 MotionCorr/job002/frames/TS_54_014_-21_0_PS.mrc MotionCorr/job002/frames/TS_54_014_-21_0_EVN.mrc MotionCorr/job002/frames/TS_54_014_-21_0_ODD.mrc MotionCorr/job002/frames/TS_54_014_-21_0.mrc MotionCorr/job002/frames/TS_54_014_-21_0.star     5.664473     0.000000     5.664473 CtfFind/job003/frames/TS_54_014_-21_0_PS.ctf:mrc 14647.457243 15439.781572   199.931641   141.856905     0.075342     7.963306     0.662400     -0.16999    -21.15609    85.066186    -23.28526    -36.65730     1.249605 
frames/TS_54_011_-18.0.mrc           10    -18.00180    85.000000    33.000000     -1.50000 MotionCorr/job002/frames/TS_54_011_-18_0_PS.mrc MotionCorr/job002/frames/TS_54_011_-18_0_EVN.mrc MotionCorr/job002/frames/TS_54_011_-18_0_ODD.mrc MotionCorr/job002/frames/TS_54_011_-18_0.mrc MotionCorr/job002/frames/TS_54_011_-18_0.star     5.176144     0.000000     5.176144 CtfFind/job003/frames/TS_54_011_-18_0_PS.ctf:mrc 15164.493044 15347.069621     0.000000   138.547643     0.088412     6.958229     0.985870     -0.15865    -18.09003    85.070842    -17.37952    -23.02941     1.394212 
frames/TS_54_010_-15.0.mrc           10    -15.00320    85.000000    30.000000     -1.50000 MotionCorr/job002/frames/TS_54_010_-15_0_PS.mrc MotionCorr/job002/frames/TS_54_010_-15_0_EVN.mrc MotionCorr/job002/frames/TS_54_010_-15_0_ODD.mrc MotionCorr/job002/frames/TS_54_010_-15_0.mrc MotionCorr/job002/frames/TS_54_010_-15_0.star     5.213246     0.000000     5.213246 CtfFind/job003/frames/TS_54_010_-15_0_PS.ctf:mrc 15095.247315 15312.922599    65.493164   110.912416     0.081766     6.636089     0.901650     -0.16331    -15.05068    85.078396    -20.63422    -32.06473     1.478583 
frames/TS_54_007_-12.0.mrc           10    -11.99850    85.000000    21.000000     -1.50000 MotionCorr/job002/frames/TS_54_007_-12_0_PS.mrc MotionCorr/job002/frames/TS_54_007_-12_0_EVN.mrc MotionCorr/job002/frames/TS_54_007_-12_0_ODD.mrc MotionCorr/job002/frames/TS_54_007_-12_0.mrc MotionCorr/job002/frames/TS_54_007_-12_0.star     4.194469     0.000000     4.194469 CtfFind/job003/frames/TS_54_007_-12_0_PS.ctf:mrc 15115.339517 15312.737580     0.001953   126.945715     0.097848     5.874570     0.694140     -0.16166    -12.04251    85.077738    -18.79786    -14.41788     1.693823 
frames/TS_54_006_-9.0.mrc           10     -8.99940    85.000000    18.000000     -1.50000 MotionCorr/job002/frames/TS_54_006_-9_0_PS.mrc MotionCorr/job002/frames/TS_54_006_-9_0_EVN.mrc MotionCorr/job002/frames/TS_54_006_-9_0_ODD.mrc MotionCorr/job002/frames/TS_54_006_-9_0.mrc MotionCorr/job002/frames/TS_54_006_-9_0.star     4.226744     0.000000     4.226744 CtfFind/job003/frames/TS_54_006_-9_0_PS.ctf:mrc 15025.897382 15264.260810   126.666992   134.081326     0.087386     5.429527     0.606490     -0.15835     -8.99879    85.080774    -17.94951    -26.15980     1.665554 
frames/TS_54_003_-6.0.mrc           10     -5.99876    85.000000     9.000000     -1.50000 MotionCorr/job002/frames/TS_54_003_-6_0_PS.mrc MotionCorr/job002/frames/TS_54_003_-6_0_EVN.mrc MotionCorr/job002/frames/TS_54_003_-6_0_ODD.mrc MotionCorr/job002/frames/TS_54_003_-6_0.mrc MotionCorr/job002/frames/TS_54_003_-6_0.star     4.304615     0.000000     4.304615 CtfFind/job003/frames/TS_54_003_-6_0_PS.ctf:mrc 15045.459191 15272.102753   210.468750   122.897336     0.094744     5.119268     1.053120     -0.10307     -5.97972    85.069406    -18.29954     -5.43202     1.789446 
frames/TS_54_002_-3.0.mrc           10     -2.99963    85.000000     6.000000     -1.50000 MotionCorr/job002/frames/TS_54_002_-3_0_PS.mrc MotionCorr/job002/frames/TS_54_002_-3_0_EVN.mrc MotionCorr/job002/frames/TS_54_002_-3_0_ODD.mrc MotionCorr/job002/frames/TS_54_002_-3_0.mrc MotionCorr/job002/frames/TS_54_002_-3_0.star     3.218856     0.000000     3.218856 CtfFind/job003/frames/TS_54_002_-3_0_PS.ctf:mrc 15097.928022 15321.209512   211.693359   132.673095     0.098356     5.082961     0.615130     -0.06691     -2.94886    85.069211    -22.63868    -28.73688     1.934005 
frames/TS_54_000_-0.0.mrc           10 -5.00000e-04    85.000000     0.000000     -1.50000 MotionCorr/job002/frames/TS_54_000_-0_0_PS.mrc MotionCorr/job002/frames/TS_54_000_-0_0_EVN.mrc MotionCorr/job002/frames/TS_54_000_-0_0_ODD.mrc MotionCorr/job002/frames/TS_54_000_-0_0.mrc MotionCorr/job002/frames/TS_54_000_-0_0.star     3.898448     2.142234     1.756215 CtfFind/job003/frames/TS_54_000_-0_0_PS.ctf:mrc 15145.129550 15365.791994   265.158203   128.633528     0.093887     5.119268     0.826400     -0.00478     0.055316    85.068326    -14.83678    -35.38959     2.040282 
frames/TS_54_001_3.0.mrc           10     2.999630    85.000000     3.000000     -1.50000 MotionCorr/job002/frames/TS_54_001_3_0_PS.mrc MotionCorr/job002/frames/TS_54_001_3_0_EVN.mrc MotionCorr/job002/frames/TS_54_001_3_0_ODD.mrc MotionCorr/job002/frames/TS_54_001_3_0.mrc MotionCorr/job002/frames/TS_54_001_3_0.star     2.820754     0.000000     2.820754 CtfFind/job003/frames/TS_54_001_3_0_PS.ctf:mrc 15118.864597 15359.916931   273.129883   127.805374     0.093105     5.231369     0.492000     -0.06121     3.081605    85.077427    -23.15701    -41.35065     1.870829 
frames/TS_54_004_6.0.mrc           10     5.999760    85.000000    12.000000     -1.50000 MotionCorr/job002/frames/TS_54_004_6_0_PS.mrc MotionCorr/job002/frames/TS_54_004_6_0_EVN.mrc MotionCorr/job002/frames/TS_54_004_6_0_ODD.mrc MotionCorr/job002/frames/TS_54_004_6_0.mrc MotionCorr/job002/frames/TS_54_004_6_0.star     3.085074     0.000000     3.085074 CtfFind/job003/frames/TS_54_004_6_0_PS.ctf:mrc 14971.121302 15227.357209   409.930664   133.402160     0.087902     5.156098     1.092580     -0.14298     6.113119    85.095701    -21.71066    -46.38295     1.781689 
frames/TS_54_005_9.0.mrc           10     8.999400    85.000000    15.000000     -1.50000 MotionCorr/job002/frames/TS_54_005_9_0_PS.mrc MotionCorr/job002/frames/TS_54_005_9_0_EVN.mrc MotionCorr/job002/frames/TS_54_005_9_0_ODD.mrc MotionCorr/job002/frames/TS_54_005_9_0.mrc MotionCorr/job002/frames/TS_54_005_9_0.star     2.978818     0.000000     2.978818 CtfFind/job003/frames/TS_54_005_9_0_PS.ctf:mrc 14996.690715 15290.323663   461.936523   125.033898     0.103138     5.269835     0.700960     -0.16725     9.122859    85.105905    -19.51768    -34.09820     1.757771 
frames/TS_54_008_12.0.mrc           10    12.000500    85.000000    24.000000     -1.50000 MotionCorr/job002/frames/TS_54_008_12_0_PS.mrc MotionCorr/job002/frames/TS_54_008_12_0_EVN.mrc MotionCorr/job002/frames/TS_54_008_12_0_ODD.mrc MotionCorr/job002/frames/TS_54_008_12_0.mrc MotionCorr/job002/frames/TS_54_008_12_0.star     3.162589     0.000000     3.162589 CtfFind/job003/frames/TS_54_008_12_0_PS.ctf:mrc 14978.797403 15210.899314    99.137695   130.045420     0.076736     6.178427     0.835920     -0.20484    12.145131    85.125293    -18.88529    -42.60402     1.616366 
frames/TS_54_009_15.0.mrc           10    15.000200    85.000000    27.000000     -1.50000 MotionCorr/job002/frames/TS_54_009_15_0_PS.mrc MotionCorr/job002/frames/TS_54_009_15_0_EVN.mrc MotionCorr/job002/frames/TS_54_009_15_0_ODD.mrc MotionCorr/job002/frames/TS_54_009_15_0.mrc MotionCorr/job002/frames/TS_54_009_15_0.star     3.562077     0.000000     3.562077 CtfFind/job003/frames/TS_54_009_15_0_PS.ctf:mrc 14931.315788 15307.474212   238.048828   132.501201     0.093326     6.232153     1.033810     -0.19309    15.116781    85.134392    -15.59785    -26.52705     1.640125 
frames/TS_54_012_18.0.mrc           10    18.000800    85.000000    36.000000     -1.50000 MotionCorr/job002/frames/TS_54_012_18_0_PS.mrc MotionCorr/job002/frames/TS_54_012_18_0_EVN.mrc MotionCorr/job002/frames/TS_54_012_18_0_ODD.mrc MotionCorr/job002/frames/TS_54_012_18_0.mrc MotionCorr/job002/frames/TS_54_012_18_0.star     4.641988     0.000000     4.641988 CtfFind/job003/frames/TS_54_012_18_0_PS.ctf:mrc 14991.893653 15269.595709   369.802734   132.373860     0.075756     6.761298     0.585740     -0.18592    18.131627    85.150899    -13.78545    -36.38879     1.386561 
frames/TS_54_013_21.0.mrc           10    21.000400    85.000000    39.000000     -1.50000 MotionCorr/job002/frames/TS_54_013_21_0_PS.mrc MotionCorr/job002/frames/TS_54_013_21_0_EVN.mrc MotionCorr/job002/frames/TS_54_013_21_0_ODD.mrc MotionCorr/job002/frames/TS_54_013_21_0.mrc MotionCorr/job002/frames/TS_54_013_21_0.star     3.758693     0.000000     3.758693 CtfFind/job003/frames/TS_54_013_21_0_PS.ctf:mrc 14979.069887 15465.562196   339.397461   160.035247     0.069856     6.515432     0.798500     -0.21469    21.041509    85.148865    -10.78095    -22.80148     1.240072 
frames/TS_54_016_24.0.mrc           10    24.000100    85.000000    48.000000     -1.50000 MotionCorr/job002/frames/TS_54_016_24_0_PS.mrc MotionCorr/job002/frames/TS_54_016_24_0_EVN.mrc MotionCorr/job002/frames/TS_54_016_24_0_ODD.mrc MotionCorr/job002/frames/TS_54_016_24_0.mrc MotionCorr/job002/frames/TS_54_016_24_0.star     5.241663     0.000000     5.241663 CtfFind/job003/frames/TS_54_016_24_0_PS.ctf:mrc 14427.248962 15057.854565   393.947266   -176.85563     0.088287     7.388635     0.645080     -0.24206    24.063864    85.153006    -11.19161    -34.96830     1.202640 
frames/TS_54_017_27.0.mrc           10    26.999700    85.000000    51.000000     -1.50000 MotionCorr/job002/frames/TS_54_017_27_0_PS.mrc MotionCorr/job002/frames/TS_54_017_27_0_EVN.mrc MotionCorr/job002/frames/TS_54_017_27_0_ODD.mrc MotionCorr/job002/frames/TS_54_017_27_0.mrc MotionCorr/job002/frames/TS_54_017_27_0.star     4.953899     0.000000     4.953899 CtfFind/job003/frames/TS_54_017_27_0_PS.ctf:mrc 14889.728793 15471.103291    88.263672   135.058053     0.084095     7.963306     0.643290     -0.23220    27.070561    85.163828     -9.44031    -22.65088     1.163183 
frames/TS_54_020_30.0.mrc           10    29.999300    85.000000    60.000000     -1.50000 MotionCorr/job002/frames/TS_54_020_30_0_PS.mrc MotionCorr/job002/frames/TS_54_020_30_0_EVN.mrc MotionCorr/job002/frames/TS_54_020_30_0_ODD.mrc MotionCorr/job002/frames/TS_54_020_30_0.mrc MotionCorr/job002/frames/TS_54_020_30_0.star     5.211208     0.000000     5.211208 CtfFind/job003/frames/TS_54_020_30_0_PS.ctf:mrc 15033.552989 15572.986183   444.293945   103.667855     0.091226     7.963306     0.674620     -0.24730    30.039902    85.180718    -15.21750    -32.04424     1.074615 
frames/TS_54_021_33.0.mrc           10    32.999500    85.000000    63.000000     -1.50000 MotionCorr/job002/frames/TS_54_021_33_0_PS.mrc MotionCorr/job002/frames/TS_54_021_33_0_EVN.mrc MotionCorr/job002/frames/TS_54_021_33_0_ODD.mrc MotionCorr/job002/frames/TS_54_021_33_0.mrc MotionCorr/job002/frames/TS_54_021_33_0.star     5.540879     0.000000     5.540879 CtfFind/job003/frames/TS_54_021_33_0_PS.ctf:mrc 15092.208943 15538.640653   117.846680   147.600036     0.070125     9.307761     1.282160     -0.27133    32.999649    85.181759     -8.95488    -15.80721     0.948078 
frames/TS_54_024_36.0.mrc           10    36.000100    85.000000    72.000000     -1.50000 MotionCorr/job002/frames/TS_54_024_36_0_PS.mrc MotionCorr/job002/frames/TS_54_024_36_0_EVN.mrc MotionCorr/job002/frames/TS_54_024_36_0_ODD.mrc MotionCorr/job002/frames/TS_54_024_36_0.mrc MotionCorr/job002/frames/TS_54_024_36_0.star     6.820884     0.000000     6.820884 CtfFind/job003/frames/TS_54_024_36_0_PS.ctf:mrc 15175.232879 15672.911449   117.241211   -146.65155     0.119576     9.555968     0.611340     -0.33839    35.986057    85.169741    -11.64653    -37.79437     1.039304 
frames/TS_54_025_39.0.mrc           10    38.999200    85.000000    75.000000     -1.50000 MotionCorr/job002/frames/TS_54_025_39_0_PS.mrc MotionCorr/job002/frames/TS_54_025_39_0_EVN.mrc MotionCorr/job002/frames/TS_54_025_39_0_ODD.mrc MotionCorr/job002/frames/TS_54_025_39_0.mrc MotionCorr/job002/frames/TS_54_025_39_0.star     7.490082     0.000000     7.490082 CtfFind/job003/frames/TS_54_025_39_0_PS.ctf:mrc 15208.777281 15743.878655     0.000000   122.212346     0.117302    10.094332     0.737300     -0.25880    39.023255    85.183804     -1.13453    -19.33515     0.973430 
frames/TS_54_028_42.0.mrc           10    41.996900    85.000000    84.000000     -1.50000 MotionCorr/job002/frames/TS_54_028_42_0_PS.mrc MotionCorr/job002/frames/TS_54_028_42_0_EVN.mrc MotionCorr/job002/frames/TS_54_028_42_0_ODD.mrc MotionCorr/job002/frames/TS_54_028_42_0.mrc MotionCorr/job002/frames/TS_54_028_42_0.star     8.404922     0.000000     8.404922 CtfFind/job003/frames/TS_54_028_42_0_PS.ctf:mrc 15209.718185 15848.852534   341.065430   120.814878     0.121007    10.696979     0.713250     -0.31704    41.963487    85.211743    -14.93607    -31.44542     0.870410 
frames/TS_54_029_45.0.mrc           10    44.997500    85.000000    87.000000     -1.50000 MotionCorr/job002/frames/TS_54_029_45_0_PS.mrc MotionCorr/job002/frames/TS_54_029_45_0_EVN.mrc MotionCorr/job002/frames/TS_54_029_45_0_ODD.mrc MotionCorr/job002/frames/TS_54_029_45_0.mrc MotionCorr/job002/frames/TS_54_029_45_0.star     8.971955     0.000000     8.971955 CtfFind/job003/frames/TS_54_029_45_0_PS.ctf:mrc 14821.553649 14951.794923    99.777344   149.458574     0.145571    11.376152     0.548480     -0.28745    44.939776    85.250265     2.778740    -20.53489     0.751724 
frames/TS_54_032_48.0.mrc           10    47.998100    85.000000    96.000000     -1.50000 MotionCorr/job002/frames/TS_54_032_48_0_PS.mrc MotionCorr/job002/frames/TS_54_032_48_0_EVN.mrc MotionCorr/job002/frames/TS_54_032_48_0_ODD.mrc MotionCorr/job002/frames/TS_54_032_48_0.mrc MotionCorr/job002/frames/TS_54_032_48_0.star     7.462951     0.000000     7.462951 CtfFind/job003/frames/TS_54_032_48_0_PS.ctf:mrc 14687.783393 14876.552143    99.599609   143.858232     0.110570    11.198400     0.608910     -0.29927    47.836532    85.285042    -20.11517    -39.61953     0.691798 
frames/TS_54_033_51.0.mrc           10    50.996300    85.000000    99.000000     -1.50000 MotionCorr/job002/frames/TS_54_033_51_0_PS.mrc MotionCorr/job002/frames/TS_54_033_51_0_EVN.mrc MotionCorr/job002/frames/TS_54_033_51_0_ODD.mrc MotionCorr/job002/frames/TS_54_033_51_0.mrc MotionCorr/job002/frames/TS_54_033_51_0.star     9.473860     0.000000     9.473860 CtfFind/job003/frames/TS_54_033_51_0_PS.ctf:mrc 15288.993974 15457.800602    91.287109   163.861196     0.127937    11.198400     0.528160     -0.37358    50.921190    85.227010     -3.87406    -37.37875     0.639885 
frames/TS_54_036_54.0.mrc           10    53.997400    85.000000   108.000000     -1.50000 MotionCorr/job002/frames/TS_54_036_54_0_PS.mrc MotionCorr/job002/frames/TS_54_036_54_0_EVN.mrc MotionCorr/job002/frames/TS_54_036_54_0_ODD.mrc MotionCorr/job002/frames/TS_54_036_54_0.mrc MotionCorr/job002/frames/TS_54_036_54_0.star    10.354688     0.000000    10.354688 CtfFind/job003/frames/TS_54_036_54_0_PS.ctf:mrc 15101.756833 15187.270336   102.067383   138.050273     0.132164    25.000000     1.123490     -0.49026    53.790357    85.162199    -28.22851    -53.75977     0.647960 
frames/TS_54_037_57.0.mrc           10    56.996500    85.000000   111.000000     -1.50000 MotionCorr/job002/frames/TS_54_037_57_0_PS.mrc MotionCorr/job002/frames/TS_54_037_57_0_EVN.mrc MotionCorr/job002/frames/TS_54_037_57_0_ODD.mrc MotionCorr/job002/frames/TS_54_037_57_0.mrc MotionCorr/job002/frames/TS_54_037_57_0.star    11.211188     0.000000    11.211188 CtfFind/job003/frames/TS_54_037_57_0_PS.ctf:mrc 14907.949320 14912.608957    44.361328   156.438600     0.127873    10.539670     0.606530     -0.25982    56.801933    85.339740    -13.98721    -38.12828     0.652455 
frames/TS_54_040_60.0.mrc           10    59.997200    85.000000   120.000000     -1.50000 MotionCorr/job002/frames/TS_54_040_60_0_PS.mrc MotionCorr/job002/frames/TS_54_040_60_0_EVN.mrc MotionCorr/job002/frames/TS_54_040_60_0_ODD.mrc MotionCorr/job002/frames/TS_54_040_60_0.mrc MotionCorr/job002/frames/TS_54_040_60_0.star     9.814438     0.000000     9.814438 CtfFind/job003/frames/TS_54_040_60_0_PS.ctf:mrc 15630.284860 15866.309514    83.993164   -169.80782     0.177517    25.000000     0.672730     -0.44229    59.733148    85.206471    -27.97677    -54.93856     0.595940 
 
