
# version 50001

data_TS_01

loop_ 
_rlnMicrographMovieName #1 
_rlnTomoTiltMovieFrameCount #2 
_rlnTomoNominalStageTiltAngle #3 
_rlnTomoNominalTiltAxisAngle #4 
_rlnMicrographPreExposure #5 
_rlnTomoNominalDefocus #6 
_rlnCtfPowerSpectrum #7 
_rlnMicrographNameEven #8 
_rlnMicrographNameOdd #9 
_rlnMicrographName #10 
_rlnMicrographMetadata #11 
_rlnAccumMotionTotal #12 
_rlnAccumMotionEarly #13 
_rlnAccumMotionLate #14 
_rlnCtfImage #15 
_rlnDefocusU #16 
_rlnDefocusV #17 
_rlnCtfAstigmatism #18 
_rlnDefocusAngle #19 
_rlnCtfFigureOfMerit #20 
_rlnCtfMaxResolution #21 
_rlnCtfIceRingDensity #22 
_rlnTomoXTilt #23 
_rlnTomoYTilt #24 
_rlnTomoZRot #25 
_rlnTomoXShiftAngst #26 
_rlnTomoYShiftAngst #27 
_rlnCtfScalefactor #28 
frames/TS_01_038_-57.0.mrc            8    -56.99850    85.000000   114.000000     -4.00000 MotionCorr/job002/frames/TS_01_038_-57_0_PS.mrc MotionCorr/job002/frames/TS_01_038_-57_0_EVN.mrc MotionCorr/job002/frames/TS_01_038_-57_0_ODD.mrc MotionCorr/job002/frames/TS_01_038_-57_0.mrc MotionCorr/job002/frames/TS_01_038_-57_0.star     6.867403     0.000000     6.867403 CtfFind/job003/frames/TS_01_038_-57_0_PS.ctf:mrc 39242.406055 39616.004993   109.371094   107.005741     0.098171    14.626481     0.624420     0.000000    -57.00000    85.032958    34.845611   108.499417     0.310983 
frames/TS_01_035_-54.0.mrc            8    -53.99890    85.000000   105.000000     -4.00000 MotionCorr/job002/frames/TS_01_035_-54_0_PS.mrc MotionCorr/job002/frames/TS_01_035_-54_0_EVN.mrc MotionCorr/job002/frames/TS_01_035_-54_0_ODD.mrc MotionCorr/job002/frames/TS_01_035_-54_0.mrc MotionCorr/job002/frames/TS_01_035_-54_0.star     8.737374     0.000000     8.737374 CtfFind/job003/frames/TS_01_035_-54_0_PS.ctf:mrc 38407.178478 38654.585094   140.769531    95.244753     0.089442    14.931199     0.549690     0.000000    -54.00000    85.054501    20.667906    93.169012     0.305052 
frames/TS_01_034_-51.0.mrc            8    -50.99880    85.000000   102.000000     -4.00000 MotionCorr/job002/frames/TS_01_034_-51_0_PS.mrc MotionCorr/job002/frames/TS_01_034_-51_0_EVN.mrc MotionCorr/job002/frames/TS_01_034_-51_0_ODD.mrc MotionCorr/job002/frames/TS_01_034_-51_0.mrc MotionCorr/job002/frames/TS_01_034_-51_0.star     9.400595     0.000000     9.400595 CtfFind/job003/frames/TS_01_034_-51_0_PS.ctf:mrc 39481.071702 39782.873065    40.027344   108.566255     0.126386    12.573642     0.511440     0.000000    -51.00000    85.073537    28.684076   116.360156     0.349854 
frames/TS_01_031_-48.0.mrc            8    -47.99860    85.000000    93.000000     -4.00000 MotionCorr/job002/frames/TS_01_031_-48_0_PS.mrc MotionCorr/job002/frames/TS_01_031_-48_0_EVN.mrc MotionCorr/job002/frames/TS_01_031_-48_0_ODD.mrc MotionCorr/job002/frames/TS_01_031_-48_0.mrc MotionCorr/job002/frames/TS_01_031_-48_0.star     8.097709     0.000000     8.097709 CtfFind/job003/frames/TS_01_031_-48_0_PS.ctf:mrc 39963.224536 40556.010275   254.808594   112.520872     0.095329    11.559638     0.848440     0.000000    -48.00000    85.090576    18.826563    97.635815     0.376073 
frames/TS_01_030_-45.0.mrc            8    -44.99900    85.000000    90.000000     -4.00000 MotionCorr/job002/frames/TS_01_030_-45_0_PS.mrc MotionCorr/job002/frames/TS_01_030_-45_0_EVN.mrc MotionCorr/job002/frames/TS_01_030_-45_0_ODD.mrc MotionCorr/job002/frames/TS_01_030_-45_0.mrc MotionCorr/job002/frames/TS_01_030_-45_0.star     7.706032     0.000000     7.706032 CtfFind/job003/frames/TS_01_030_-45_0_PS.ctf:mrc 39227.626433 39658.149683   242.738281    75.126790     0.064779    11.198400     0.478040     0.000000    -45.00000    85.105988    29.472386   116.098643     0.416116 
frames/TS_01_027_-42.0.mrc            8    -41.99890    85.000000    81.000000     -4.00000 MotionCorr/job002/frames/TS_01_027_-42_0_PS.mrc MotionCorr/job002/frames/TS_01_027_-42_0_EVN.mrc MotionCorr/job002/frames/TS_01_027_-42_0_ODD.mrc MotionCorr/job002/frames/TS_01_027_-42_0.mrc MotionCorr/job002/frames/TS_01_027_-42_0.star     7.616364     0.000000     7.616364 CtfFind/job003/frames/TS_01_027_-42_0_PS.ctf:mrc 39212.148840 39497.414653   129.660156    90.855456     0.060071    11.198400     0.681970     0.000000    -42.00000    85.120071    19.003113    94.890557     0.356356 
frames/TS_01_026_-39.0.mrc            8    -38.99870    85.000000    78.000000     -4.00000 MotionCorr/job002/frames/TS_01_026_-39_0_PS.mrc MotionCorr/job002/frames/TS_01_026_-39_0_EVN.mrc MotionCorr/job002/frames/TS_01_026_-39_0_ODD.mrc MotionCorr/job002/frames/TS_01_026_-39_0.mrc MotionCorr/job002/frames/TS_01_026_-39_0.star     6.881871     0.000000     6.881871 CtfFind/job003/frames/TS_01_026_-39_0_PS.ctf:mrc 38860.003686 39551.745371   408.003906   122.538415     0.058877     9.685102     0.421770     0.000000    -39.00000    85.133061    21.761036   116.891845     0.445796 
frames/TS_01_023_-36.0.mrc            8    -35.99860    85.000000    69.000000     -4.00000 MotionCorr/job002/frames/TS_01_023_-36_0_PS.mrc MotionCorr/job002/frames/TS_01_023_-36_0_EVN.mrc MotionCorr/job002/frames/TS_01_023_-36_0_ODD.mrc MotionCorr/job002/frames/TS_01_023_-36_0.mrc MotionCorr/job002/frames/TS_01_023_-36_0.star     6.251948     0.000000     6.251948 CtfFind/job003/frames/TS_01_023_-36_0_PS.ctf:mrc 38947.348009 39745.589410   390.214844    92.573635     0.068964    10.094332     0.587930     0.000000    -36.00000    85.145153    12.780535    90.255066     0.565346 
frames/TS_01_022_-33.0.mrc            8    -32.99900    85.000000    66.000000     -4.00000 MotionCorr/job002/frames/TS_01_022_-33_0_PS.mrc MotionCorr/job002/frames/TS_01_022_-33_0_EVN.mrc MotionCorr/job002/frames/TS_01_022_-33_0_ODD.mrc MotionCorr/job002/frames/TS_01_022_-33_0.mrc MotionCorr/job002/frames/TS_01_022_-33_0.star     5.508498     0.000000     5.508498 CtfFind/job003/frames/TS_01_022_-33_0_PS.ctf:mrc 38992.925312 39620.497390   131.757812    83.034386     0.068570     9.072121     1.470770     0.000000    -33.00000    85.156470    17.908609   112.196687     0.595266 
frames/TS_01_019_-30.0.mrc            8    -29.99880    85.000000    57.000000     -4.00000 MotionCorr/job002/frames/TS_01_019_-30_0_PS.mrc MotionCorr/job002/frames/TS_01_019_-30_0_EVN.mrc MotionCorr/job002/frames/TS_01_019_-30_0_ODD.mrc MotionCorr/job002/frames/TS_01_019_-30_0.mrc MotionCorr/job002/frames/TS_01_019_-30_0.star     5.991338     0.000000     5.991338 CtfFind/job003/frames/TS_01_019_-30_0_PS.ctf:mrc 38513.225670 39493.465940   401.738281   105.436326     0.061857     9.188430     0.461620     0.000000    -30.00000    85.167165     6.624730    83.144477     0.684808 
frames/TS_01_018_-27.0.mrc            8    -26.99920    85.000000    54.000000     -4.00000 MotionCorr/job002/frames/TS_01_018_-27_0_PS.mrc MotionCorr/job002/frames/TS_01_018_-27_0_EVN.mrc MotionCorr/job002/frames/TS_01_018_-27_0_ODD.mrc MotionCorr/job002/frames/TS_01_018_-27_0.mrc MotionCorr/job002/frames/TS_01_018_-27_0.star     3.764705     0.000000     3.764705 CtfFind/job003/frames/TS_01_018_-27_0_PS.ctf:mrc 38878.318406 39353.164154   461.804688   123.448127     0.043537     7.875797     0.967460     0.000000    -27.00000    85.177337     9.257857   104.734463     0.718073 
frames/TS_01_015_-24.0.mrc            8    -23.99860    85.000000    45.000000     -4.00000 MotionCorr/job002/frames/TS_01_015_-24_0_PS.mrc MotionCorr/job002/frames/TS_01_015_-24_0_EVN.mrc MotionCorr/job002/frames/TS_01_015_-24_0_ODD.mrc MotionCorr/job002/frames/TS_01_015_-24_0.mrc MotionCorr/job002/frames/TS_01_015_-24_0.star     4.374630     0.000000     4.374630 CtfFind/job003/frames/TS_01_015_-24_0_PS.ctf:mrc 39057.922965 39831.114007   826.437500   127.578635     0.031468     9.072121     0.625670     0.000000    -24.00000    85.187071     1.454121    74.985005     0.791757 
frames/TS_01_014_-21.0.mrc            8    -20.99890    85.000000    42.000000     -4.00000 MotionCorr/job002/frames/TS_01_014_-21_0_PS.mrc MotionCorr/job002/frames/TS_01_014_-21_0_EVN.mrc MotionCorr/job002/frames/TS_01_014_-21_0_ODD.mrc MotionCorr/job002/frames/TS_01_014_-21_0.mrc MotionCorr/job002/frames/TS_01_014_-21_0.star     3.208567     0.000000     3.208567 CtfFind/job003/frames/TS_01_014_-21_0_PS.ctf:mrc 39050.777025 39717.344049   438.785156   124.509225     0.059953     6.575207     0.532320     0.000000    -21.00000    85.196449     8.578640   100.746389     0.894605 
frames/TS_01_011_-18.0.mrc            8    -17.99880    85.000000    33.000000     -4.00000 MotionCorr/job002/frames/TS_01_011_-18_0_PS.mrc MotionCorr/job002/frames/TS_01_011_-18_0_EVN.mrc MotionCorr/job002/frames/TS_01_011_-18_0_ODD.mrc MotionCorr/job002/frames/TS_01_011_-18_0.mrc MotionCorr/job002/frames/TS_01_011_-18_0.star     2.927541     0.000000     2.927541 CtfFind/job003/frames/TS_01_011_-18_0_PS.ctf:mrc 38999.083084 39898.954248   570.011719   141.092512     0.051604     8.052782     0.600150     0.000000    -18.00000    85.205539     3.762442    70.426216     1.004654 
frames/TS_01_010_-15.0.mrc            8    -14.99870    85.000000    30.000000     -4.00000 MotionCorr/job002/frames/TS_01_010_-15_0_PS.mrc MotionCorr/job002/frames/TS_01_010_-15_0_EVN.mrc MotionCorr/job002/frames/TS_01_010_-15_0_ODD.mrc MotionCorr/job002/frames/TS_01_010_-15_0.mrc MotionCorr/job002/frames/TS_01_010_-15_0.star     3.144113     0.000000     3.144113 CtfFind/job003/frames/TS_01_010_-15_0_PS.ctf:mrc 39293.776884 39544.160385    58.691406   110.923304     0.057074     6.891323     1.495470     0.000000    -15.00000    85.214394     7.969166    77.680473     0.936081 
frames/TS_01_007_-12.0.mrc            8    -11.99850    85.000000    21.000000     -4.00000 MotionCorr/job002/frames/TS_01_007_-12_0_PS.mrc MotionCorr/job002/frames/TS_01_007_-12_0_EVN.mrc MotionCorr/job002/frames/TS_01_007_-12_0_ODD.mrc MotionCorr/job002/frames/TS_01_007_-12_0.mrc MotionCorr/job002/frames/TS_01_007_-12_0.star     2.299021     0.000000     2.299021 CtfFind/job003/frames/TS_01_007_-12_0_PS.ctf:mrc 39322.444647 39674.304364   320.023438   129.593230     0.039666     7.544185     1.236110     0.000000    -12.00000    85.223076     3.958798    71.251783     1.081113 
frames/TS_01_006_-9.0.mrc            8     -8.99890    85.000000    18.000000     -4.00000 MotionCorr/job002/frames/TS_01_006_-9_0_PS.mrc MotionCorr/job002/frames/TS_01_006_-9_0_EVN.mrc MotionCorr/job002/frames/TS_01_006_-9_0_ODD.mrc MotionCorr/job002/frames/TS_01_006_-9_0.mrc MotionCorr/job002/frames/TS_01_006_-9_0.star     2.231222     0.000000     2.231222 CtfFind/job003/frames/TS_01_006_-9_0_PS.ctf:mrc 39001.472902 39744.100706   974.921875   152.121134     0.041542     7.544185     1.137880     0.000000     -9.00000    85.231637     7.246304    46.122795     1.082549 
frames/TS_01_003_-6.0.mrc            8     -5.99876    85.000000     9.000000     -4.00000 MotionCorr/job002/frames/TS_01_003_-6_0_PS.mrc MotionCorr/job002/frames/TS_01_003_-6_0_EVN.mrc MotionCorr/job002/frames/TS_01_003_-6_0_ODD.mrc MotionCorr/job002/frames/TS_01_003_-6_0.mrc MotionCorr/job002/frames/TS_01_003_-6_0.star     3.237798     0.000000     3.237798 CtfFind/job003/frames/TS_01_003_-6_0_PS.ctf:mrc 38364.431502 38963.743761   337.300781    78.090453     0.045582     7.096016     0.480650     0.000000     -6.00000    85.240123     4.056802    43.530523     0.811510 
frames/TS_01_002_-3.0.mrc            8     -2.99863    85.000000     6.000000     -4.00000 MotionCorr/job002/frames/TS_01_002_-3_0_PS.mrc MotionCorr/job002/frames/TS_01_002_-3_0_EVN.mrc MotionCorr/job002/frames/TS_01_002_-3_0_ODD.mrc MotionCorr/job002/frames/TS_01_002_-3_0.mrc MotionCorr/job002/frames/TS_01_002_-3_0.star     2.008728     0.000000     2.008728 CtfFind/job003/frames/TS_01_002_-3_0_PS.ctf:mrc 38789.855317 39206.641171   250.898438   126.304262     0.043894     6.232153     1.195820     0.000000     -3.00000    85.248598     -0.66451    14.789812     1.068423 
frames/TS_01_000_0.0.mrc            8     0.001000    85.000000     0.000000     -4.00000 MotionCorr/job002/frames/TS_01_000_0_0_PS.mrc MotionCorr/job002/frames/TS_01_000_0_0_EVN.mrc MotionCorr/job002/frames/TS_01_000_0_0_ODD.mrc MotionCorr/job002/frames/TS_01_000_0_0.mrc MotionCorr/job002/frames/TS_01_000_0_0.star     2.297631     1.007983     1.289649 CtfFind/job003/frames/TS_01_000_0_0_PS.ctf:mrc 38813.297679 38961.961515   105.000000   142.426312     0.035810     7.026447     0.605850     0.000000     0.000000    85.257078     0.610515     -9.18091     1.087362 
frames/TS_01_001_3.0.mrc            8     3.001130    85.000000     3.000000     -4.00000 MotionCorr/job002/frames/TS_01_001_3_0_PS.mrc MotionCorr/job002/frames/TS_01_001_3_0_EVN.mrc MotionCorr/job002/frames/TS_01_001_3_0_ODD.mrc MotionCorr/job002/frames/TS_01_001_3_0.mrc MotionCorr/job002/frames/TS_01_001_3_0.star     2.384960     0.000000     2.384960 CtfFind/job003/frames/TS_01_001_3_0_PS.ctf:mrc 39207.914851 39277.464782    40.277344   115.998043     0.045554     6.575207     0.570030     0.000000     3.000000    85.265627     -3.25447    -41.71695     1.076302 
frames/TS_01_004_6.0.mrc            8     6.001260    85.000000    12.000000     -4.00000 MotionCorr/job002/frames/TS_01_004_6_0_PS.mrc MotionCorr/job002/frames/TS_01_004_6_0_EVN.mrc MotionCorr/job002/frames/TS_01_004_6_0_ODD.mrc MotionCorr/job002/frames/TS_01_004_6_0.mrc MotionCorr/job002/frames/TS_01_004_6_0.star     2.323928     0.000000     2.323928 CtfFind/job003/frames/TS_01_004_6_0_PS.ctf:mrc 38986.466533 39274.007228   211.851562   142.687763     0.050940     6.958229     0.600390     0.000000     6.000000    85.274297     -7.63839    -65.14949     1.142378 
frames/TS_01_005_9.0.mrc            8     9.001400    85.000000    15.000000     -4.00000 MotionCorr/job002/frames/TS_01_005_9_0_PS.mrc MotionCorr/job002/frames/TS_01_005_9_0_EVN.mrc MotionCorr/job002/frames/TS_01_005_9_0_ODD.mrc MotionCorr/job002/frames/TS_01_005_9_0.mrc MotionCorr/job002/frames/TS_01_005_9_0.star     2.180758     0.000000     2.180758 CtfFind/job003/frames/TS_01_005_9_0_PS.ctf:mrc 38877.622218 39567.712733   895.097656   132.949598     0.047935     6.232153     0.796060     0.000000     9.000000    85.283144     -8.10592    -58.01866     1.150262 
frames/TS_01_008_12.0.mrc            8    12.000500    85.000000    24.000000     -4.00000 MotionCorr/job002/frames/TS_01_008_12_0_PS.mrc MotionCorr/job002/frames/TS_01_008_12_0_EVN.mrc MotionCorr/job002/frames/TS_01_008_12_0_ODD.mrc MotionCorr/job002/frames/TS_01_008_12_0.mrc MotionCorr/job002/frames/TS_01_008_12_0.star     2.105090     0.000000     2.105090 CtfFind/job003/frames/TS_01_008_12_0_PS.ctf:mrc 38914.287285 39418.715693   249.871094   128.267350     0.068617     6.761298     0.636830     0.000000    12.000000    85.292199     -9.16877    -87.45313     1.042116 
frames/TS_01_009_15.0.mrc            8    15.000700    85.000000    27.000000     -4.00000 MotionCorr/job002/frames/TS_01_009_15_0_PS.mrc MotionCorr/job002/frames/TS_01_009_15_0_EVN.mrc MotionCorr/job002/frames/TS_01_009_15_0_ODD.mrc MotionCorr/job002/frames/TS_01_009_15_0.mrc MotionCorr/job002/frames/TS_01_009_15_0.star     2.645439     0.000000     2.645439 CtfFind/job003/frames/TS_01_009_15_0_PS.ctf:mrc 38917.180980 39416.411101   246.207031   139.192771     0.060885     6.636089     1.134630     0.000000    15.000000    85.301541    -11.01816    -74.03634     1.059431 
frames/TS_01_012_18.0.mrc            8    18.000800    85.000000    36.000000     -4.00000 MotionCorr/job002/frames/TS_01_012_18_0_PS.mrc MotionCorr/job002/frames/TS_01_012_18_0_EVN.mrc MotionCorr/job002/frames/TS_01_012_18_0_ODD.mrc MotionCorr/job002/frames/TS_01_012_18_0.mrc MotionCorr/job002/frames/TS_01_012_18_0.star     3.365260     0.000000     3.365260 CtfFind/job003/frames/TS_01_012_18_0_PS.ctf:mrc 38999.947647 39453.112374   126.351562   129.965887     0.056260     8.144291     0.656890     0.000000    18.000000    85.311234    -15.05554   -105.10139     1.013085 
frames/TS_01_013_21.0.mrc            8    21.000900    85.000000    39.000000     -4.00000 MotionCorr/job002/frames/TS_01_013_21_0_PS.mrc MotionCorr/job002/frames/TS_01_013_21_0_EVN.mrc MotionCorr/job002/frames/TS_01_013_21_0_ODD.mrc MotionCorr/job002/frames/TS_01_013_21_0.mrc MotionCorr/job002/frames/TS_01_013_21_0.star     3.806968     0.000000     3.806968 CtfFind/job003/frames/TS_01_013_21_0_PS.ctf:mrc 39278.943591 39545.594759   205.695312   137.984696     0.045835     7.313241     0.594060     0.000000    21.000000    85.321352    -14.13631   -105.00574     0.960424 
frames/TS_01_016_24.0.mrc            8    24.000600    85.000000    48.000000     -4.00000 MotionCorr/job002/frames/TS_01_016_24_0_PS.mrc MotionCorr/job002/frames/TS_01_016_24_0_EVN.mrc MotionCorr/job002/frames/TS_01_016_24_0_ODD.mrc MotionCorr/job002/frames/TS_01_016_24_0.mrc MotionCorr/job002/frames/TS_01_016_24_0.star     3.305467     0.000000     3.305467 CtfFind/job003/frames/TS_01_016_24_0_PS.ctf:mrc 38972.786812 39290.619353   309.660156   169.708894     0.074357     8.052782     1.427420     0.000000    24.000000    85.331987    -19.90644   -125.45170     0.813695 
frames/TS_01_017_27.0.mrc            8    27.000700    85.000000    51.000000     -4.00000 MotionCorr/job002/frames/TS_01_017_27_0_PS.mrc MotionCorr/job002/frames/TS_01_017_27_0_EVN.mrc MotionCorr/job002/frames/TS_01_017_27_0_ODD.mrc MotionCorr/job002/frames/TS_01_017_27_0.mrc MotionCorr/job002/frames/TS_01_017_27_0.star     4.514617     0.000000     4.514617 CtfFind/job003/frames/TS_01_017_27_0_PS.ctf:mrc 38634.897560 39279.861166   128.867188   139.732274     0.057817     8.958720     1.250290     0.000000    27.000000    85.343242    -15.16640   -130.85393     0.784726 
frames/TS_01_020_30.0.mrc            8    30.000800    85.000000    60.000000     -4.00000 MotionCorr/job002/frames/TS_01_020_30_0_PS.mrc MotionCorr/job002/frames/TS_01_020_30_0_EVN.mrc MotionCorr/job002/frames/TS_01_020_30_0_ODD.mrc MotionCorr/job002/frames/TS_01_020_30_0.mrc MotionCorr/job002/frames/TS_01_020_30_0.star     4.122379     0.000000     4.122379 CtfFind/job003/frames/TS_01_020_30_0_PS.ctf:mrc 38064.952095 39088.085581   696.796875   115.951369     0.053755     9.430231     0.488000     0.000000    30.000000    85.355234    -24.58533   -142.19840     0.715423 
frames/TS_01_021_33.0.mrc            8    33.001000    85.000000    63.000000     -4.00000 MotionCorr/job002/frames/TS_01_021_33_0_PS.mrc MotionCorr/job002/frames/TS_01_021_33_0_EVN.mrc MotionCorr/job002/frames/TS_01_021_33_0_ODD.mrc MotionCorr/job002/frames/TS_01_021_33_0.mrc MotionCorr/job002/frames/TS_01_021_33_0.star     4.487542     0.000000     4.487542 CtfFind/job003/frames/TS_01_021_33_0_PS.ctf:mrc 38589.809619 39131.405819   152.042969    97.645840     0.081110     8.848118     0.590140     0.000000    33.000000    85.368116    -20.10006   -128.84714     0.686587 
frames/TS_01_024_36.0.mrc            8    36.000600    85.000000    72.000000     -4.00000 MotionCorr/job002/frames/TS_01_024_36_0_PS.mrc MotionCorr/job002/frames/TS_01_024_36_0_EVN.mrc MotionCorr/job002/frames/TS_01_024_36_0_ODD.mrc MotionCorr/job002/frames/TS_01_024_36_0.mrc MotionCorr/job002/frames/TS_01_024_36_0.star     4.487724     0.000000     4.487724 CtfFind/job003/frames/TS_01_024_36_0_PS.ctf:mrc 38081.675975 38958.225622   435.519531   102.231609     0.072468    10.539670     0.864610     0.000000    36.000000    85.382079    -22.66868   -156.07801     0.525413 
frames/TS_01_025_39.0.mrc            8    39.000700    85.000000    75.000000     -4.00000 MotionCorr/job002/frames/TS_01_025_39_0_PS.mrc MotionCorr/job002/frames/TS_01_025_39_0_EVN.mrc MotionCorr/job002/frames/TS_01_025_39_0_ODD.mrc MotionCorr/job002/frames/TS_01_025_39_0.mrc MotionCorr/job002/frames/TS_01_025_39_0.star     5.025156     0.000000     5.025156 CtfFind/job003/frames/TS_01_025_39_0_PS.ctf:mrc 38481.776957 39280.066195   507.058594   113.424965     0.083311     9.954133     0.650820     0.000000    39.000000    85.397329     -8.90178   -138.03012     0.547009 
frames/TS_01_028_42.0.mrc            8    42.000900    85.000000    84.000000     -4.00000 MotionCorr/job002/frames/TS_01_028_42_0_PS.mrc MotionCorr/job002/frames/TS_01_028_42_0_EVN.mrc MotionCorr/job002/frames/TS_01_028_42_0_ODD.mrc MotionCorr/job002/frames/TS_01_028_42_0.mrc MotionCorr/job002/frames/TS_01_028_42_0.star     4.218339     0.000000     4.218339 CtfFind/job003/frames/TS_01_028_42_0_PS.ctf:mrc 38260.296439 38783.246724   295.824219   106.982309     0.102306    10.386921     0.533730     0.000000    42.000000    85.414188    -25.53778   -165.24316     0.511819 
frames/TS_01_029_45.0.mrc            8    45.001000    85.000000    87.000000     -4.00000 MotionCorr/job002/frames/TS_01_029_45_0_PS.mrc MotionCorr/job002/frames/TS_01_029_45_0_EVN.mrc MotionCorr/job002/frames/TS_01_029_45_0_ODD.mrc MotionCorr/job002/frames/TS_01_029_45_0.mrc MotionCorr/job002/frames/TS_01_029_45_0.star     5.827766     0.000000     5.827766 CtfFind/job003/frames/TS_01_029_45_0_PS.ctf:mrc 38379.656540 38695.562051   193.757812   116.774161     0.083501    10.238537     0.576610     0.000000    45.000000    85.432983    -10.78348   -146.42547     0.466280 
frames/TS_01_032_48.0.mrc            8    48.000600    85.000000    96.000000     -4.00000 MotionCorr/job002/frames/TS_01_032_48_0_PS.mrc MotionCorr/job002/frames/TS_01_032_48_0_EVN.mrc MotionCorr/job002/frames/TS_01_032_48_0_ODD.mrc MotionCorr/job002/frames/TS_01_032_48_0.mrc MotionCorr/job002/frames/TS_01_032_48_0.star     5.189981     0.000000     5.189981 CtfFind/job003/frames/TS_01_032_48_0_PS.ctf:mrc 38048.706491 38383.148010   264.953125   120.742757     0.103284    11.749141     1.007310     0.000000    48.000000    85.454233    -28.22726   -169.43797     0.460988 
frames/TS_01_033_51.0.mrc            8    51.000800    85.000000    99.000000     -4.00000 MotionCorr/job002/frames/TS_01_033_51_0_PS.mrc MotionCorr/job002/frames/TS_01_033_51_0_EVN.mrc MotionCorr/job002/frames/TS_01_033_51_0_ODD.mrc MotionCorr/job002/frames/TS_01_033_51_0.mrc MotionCorr/job002/frames/TS_01_033_51_0.star     6.903079     0.000000     6.903079 CtfFind/job003/frames/TS_01_033_51_0_PS.ctf:mrc 38653.689993 39103.516567   121.355469    98.524935     0.074141    12.356855     0.623900     0.000000    51.000000    85.478574     -8.80405   -143.82006     0.444729 
frames/TS_01_036_54.0.mrc            8    54.000900    85.000000   108.000000     -4.00000 MotionCorr/job002/frames/TS_01_036_54_0_PS.mrc MotionCorr/job002/frames/TS_01_036_54_0_EVN.mrc MotionCorr/job002/frames/TS_01_036_54_0_ODD.mrc MotionCorr/job002/frames/TS_01_036_54_0.mrc MotionCorr/job002/frames/TS_01_036_54_0.star     4.851630     0.000000     4.851630 CtfFind/job003/frames/TS_01_036_54_0_PS.ctf:mrc 38469.880386 38869.313644   162.777344    92.973606     0.105213    13.782646     0.538310     0.000000    54.000000    85.506914    -29.57160   -162.39505     0.358483 
frames/TS_01_037_57.0.mrc            8    57.000000    85.000000   111.000000     -4.00000 MotionCorr/job002/frames/TS_01_037_57_0_PS.mrc MotionCorr/job002/frames/TS_01_037_57_0_EVN.mrc MotionCorr/job002/frames/TS_01_037_57_0_ODD.mrc MotionCorr/job002/frames/TS_01_037_57_0.mrc MotionCorr/job002/frames/TS_01_037_57_0.star     5.856454     0.000000     5.856454 CtfFind/job003/frames/TS_01_037_57_0_PS.ctf:mrc 37325.358201 37635.811918     2.816406   104.593218     0.115731    14.626481     0.839010     0.000000    57.000000    85.540511    -11.98729   -137.53797     0.309274 
frames/TS_01_040_60.0.mrc            8    60.000600    85.000000   120.000000     -4.00000 MotionCorr/job002/frames/TS_01_040_60_0_PS.mrc MotionCorr/job002/frames/TS_01_040_60_0_EVN.mrc MotionCorr/job002/frames/TS_01_040_60_0_ODD.mrc MotionCorr/job002/frames/TS_01_040_60_0.mrc MotionCorr/job002/frames/TS_01_040_60_0.star     6.036839     0.000000     6.036839 CtfFind/job003/frames/TS_01_040_60_0_PS.ctf:mrc 38303.430183 38692.985387    95.328125    97.294318     0.159484    14.333951     1.524560     0.000000    60.000000    85.581239    -27.89235   -156.67569     0.281738 
 
