
# version 50001

data_TS_43

loop_ 
_rlnMicrographMovieName #1 
_rlnTomoTiltMovieFrameCount #2 
_rlnTomoNominalStageTiltAngle #3 
_rlnTomoNominalTiltAxisAngle #4 
_rlnMicrographPreExposure #5 
_rlnTomoNominalDefocus #6 
_rlnCtfPowerSpectrum #7 
_rlnMicrographNameEven #8 
_rlnMicrographNameOdd #9 
_rlnMicrographName #10 
_rlnMicrographMetadata #11 
_rlnAccumMotionTotal #12 
_rlnAccumMotionEarly #13 
_rlnAccumMotionLate #14 
_rlnCtfImage #15 
_rlnDefocusU #16 
_rlnDefocusV #17 
_rlnCtfAstigmatism #18 
_rlnDefocusAngle #19 
_rlnCtfFigureOfMerit #20 
_rlnCtfMaxResolution #21 
_rlnCtfIceRingDensity #22 
_rlnTomoXTilt #23 
_rlnTomoYTilt #24 
_rlnTomoZRot #25 
_rlnTomoXShiftAngst #26 
_rlnTomoYShiftAngst #27 
_rlnCtfScalefactor #28 
frames/TS_43_039_-60.0.mrc           10    -59.99910    85.000000   117.000000     -2.50000 MotionCorr/job002/frames/TS_43_039_-60_0_PS.mrc MotionCorr/job002/frames/TS_43_039_-60_0_EVN.mrc MotionCorr/job002/frames/TS_43_039_-60_0_ODD.mrc MotionCorr/job002/frames/TS_43_039_-60_0.mrc MotionCorr/job002/frames/TS_43_039_-60_0.star    16.206940     0.000000    16.206940 CtfFind/job003/frames/TS_43_039_-60_0_PS.ctf:mrc 27203.914390 27630.144354    72.912109   153.211815     0.101234    14.931199     0.610390     0.000000    -60.00000    84.974368    11.622884    49.321205     0.328383 
frames/TS_43_038_-57.0.mrc           10    -56.99900    85.000000   114.000000     -2.50000 MotionCorr/job002/frames/TS_43_038_-57_0_PS.mrc MotionCorr/job002/frames/TS_43_038_-57_0_EVN.mrc MotionCorr/job002/frames/TS_43_038_-57_0_ODD.mrc MotionCorr/job002/frames/TS_43_038_-57_0.mrc MotionCorr/job002/frames/TS_43_038_-57_0.star    15.545098     0.000000    15.545098 CtfFind/job003/frames/TS_43_038_-57_0_PS.ctf:mrc 26611.929310 26794.928666   148.404297   179.688078     0.118246    13.782646     0.824470     0.000000    -57.00000    85.001923    23.270010    53.591212     0.418180 
frames/TS_43_035_-54.0.mrc           10    -53.99940    85.000000   105.000000     -2.50000 MotionCorr/job002/frames/TS_43_035_-54_0_PS.mrc MotionCorr/job002/frames/TS_43_035_-54_0_EVN.mrc MotionCorr/job002/frames/TS_43_035_-54_0_ODD.mrc MotionCorr/job002/frames/TS_43_035_-54_0.mrc MotionCorr/job002/frames/TS_43_035_-54_0.star     9.453412     0.000000     9.453412 CtfFind/job003/frames/TS_43_035_-54_0_PS.ctf:mrc 27062.624251 27193.156319   188.353516   151.935786     0.108487    14.052894     0.358210     0.000000    -54.00000    85.024434    13.379738    38.782334     0.510787 
frames/TS_43_034_-51.0.mrc           10    -51.00030    85.000000   102.000000     -2.50000 MotionCorr/job002/frames/TS_43_034_-51_0_PS.mrc MotionCorr/job002/frames/TS_43_034_-51_0_EVN.mrc MotionCorr/job002/frames/TS_43_034_-51_0_ODD.mrc MotionCorr/job002/frames/TS_43_034_-51_0.mrc MotionCorr/job002/frames/TS_43_034_-51_0.star     8.636927     0.000000     8.636927 CtfFind/job003/frames/TS_43_034_-51_0_PS.ctf:mrc 26292.943294 26626.385287    87.132812   149.341873     0.100523    15.580382     0.593780     0.000000    -51.00000    85.043264    21.678258    52.246689     0.483064 
frames/TS_43_031_-48.0.mrc           10    -47.99910    85.000000    93.000000     -2.50000 MotionCorr/job002/frames/TS_43_031_-48_0_PS.mrc MotionCorr/job002/frames/TS_43_031_-48_0_EVN.mrc MotionCorr/job002/frames/TS_43_031_-48_0_ODD.mrc MotionCorr/job002/frames/TS_43_031_-48_0.mrc MotionCorr/job002/frames/TS_43_031_-48_0.star     7.402671     0.000000     7.402671 CtfFind/job003/frames/TS_43_031_-48_0_PS.ctf:mrc 26160.573173 26504.149279    46.164062   168.095095     0.100539    10.696979     0.562810     0.000000    -48.00000    85.059338    12.743791    30.202356     0.622639 
frames/TS_43_030_-45.0.mrc           10    -45.00000    85.000000    90.000000     -2.50000 MotionCorr/job002/frames/TS_43_030_-45_0_PS.mrc MotionCorr/job002/frames/TS_43_030_-45_0_EVN.mrc MotionCorr/job002/frames/TS_43_030_-45_0_ODD.mrc MotionCorr/job002/frames/TS_43_030_-45_0.mrc MotionCorr/job002/frames/TS_43_030_-45_0.star     6.843554     0.000000     6.843554 CtfFind/job003/frames/TS_43_030_-45_0_PS.ctf:mrc 25720.818049 26066.281710    56.287109   159.998426     0.106071    11.376152     0.693640     0.000000    -45.00000    85.073278    19.814236    44.328329     0.647748 
frames/TS_43_027_-42.0.mrc           10    -41.99940    85.000000    81.000000     -2.50000 MotionCorr/job002/frames/TS_43_027_-42_0_PS.mrc MotionCorr/job002/frames/TS_43_027_-42_0_EVN.mrc MotionCorr/job002/frames/TS_43_027_-42_0_ODD.mrc MotionCorr/job002/frames/TS_43_027_-42_0.mrc MotionCorr/job002/frames/TS_43_027_-42_0.star     6.120841     0.000000     6.120841 CtfFind/job003/frames/TS_43_027_-42_0_PS.ctf:mrc 25812.508342 26191.795550    91.169922   159.980818     0.092008    10.859054     0.487080     0.000000    -42.00000    85.085561    12.161816    27.792328     0.724620 
frames/TS_43_026_-39.0.mrc           10    -38.99970    85.000000    78.000000     -2.50000 MotionCorr/job002/frames/TS_43_026_-39_0_PS.mrc MotionCorr/job002/frames/TS_43_026_-39_0_EVN.mrc MotionCorr/job002/frames/TS_43_026_-39_0_ODD.mrc MotionCorr/job002/frames/TS_43_026_-39_0.mrc MotionCorr/job002/frames/TS_43_026_-39_0.star     5.769808     0.000000     5.769808 CtfFind/job003/frames/TS_43_026_-39_0_PS.ctf:mrc 25530.822882 26149.580662   390.078125   175.376455     0.077061    10.539670     0.682360     0.000000    -39.00000    85.096499    17.061386    44.645510     0.740804 
frames/TS_43_023_-36.0.mrc           10    -36.00010    85.000000    69.000000     -2.50000 MotionCorr/job002/frames/TS_43_023_-36_0_PS.mrc MotionCorr/job002/frames/TS_43_023_-36_0_EVN.mrc MotionCorr/job002/frames/TS_43_023_-36_0_ODD.mrc MotionCorr/job002/frames/TS_43_023_-36_0.mrc MotionCorr/job002/frames/TS_43_023_-36_0.star     4.895332     0.000000     4.895332 CtfFind/job003/frames/TS_43_023_-36_0_PS.ctf:mrc 25237.455939 25909.452742   379.738281   150.187539     0.080132     9.817775     0.546200     0.000000    -36.00000    85.106379     4.372313    21.331763     0.852618 
frames/TS_43_022_-33.0.mrc           10    -33.00000    85.000000    66.000000     -2.50000 MotionCorr/job002/frames/TS_43_022_-33_0_PS.mrc MotionCorr/job002/frames/TS_43_022_-33_0_EVN.mrc MotionCorr/job002/frames/TS_43_022_-33_0_ODD.mrc MotionCorr/job002/frames/TS_43_022_-33_0.mrc MotionCorr/job002/frames/TS_43_022_-33_0.star     3.799344     0.000000     3.799344 CtfFind/job003/frames/TS_43_022_-33_0_PS.ctf:mrc 25040.699554 25573.346838   575.750000   130.898455     0.060713     9.555968     0.468210     0.000000    -33.00000    85.115372     8.655947    46.208250     0.861729 
frames/TS_43_019_-30.0.mrc           10    -29.99980    85.000000    57.000000     -2.50000 MotionCorr/job002/frames/TS_43_019_-30_0_PS.mrc MotionCorr/job002/frames/TS_43_019_-30_0_EVN.mrc MotionCorr/job002/frames/TS_43_019_-30_0_ODD.mrc MotionCorr/job002/frames/TS_43_019_-30_0.mrc MotionCorr/job002/frames/TS_43_019_-30_0.star     5.360931     0.000000     5.360931 CtfFind/job003/frames/TS_43_019_-30_0_PS.ctf:mrc 25049.641321 25288.714494   560.765625   -150.20591     0.043107     9.685102     0.494240     0.000000    -30.00000    85.123653     -0.43721    17.569752     0.941178 
frames/TS_43_018_-27.0.mrc           10    -27.00070    85.000000    54.000000     -2.50000 MotionCorr/job002/frames/TS_43_018_-27_0_PS.mrc MotionCorr/job002/frames/TS_43_018_-27_0_EVN.mrc MotionCorr/job002/frames/TS_43_018_-27_0_ODD.mrc MotionCorr/job002/frames/TS_43_018_-27_0.mrc MotionCorr/job002/frames/TS_43_018_-27_0.star     3.866844     0.000000     3.866844 CtfFind/job003/frames/TS_43_018_-27_0_PS.ctf:mrc 24876.464378 25338.466376   153.384766   134.021763     0.061933     8.958720     0.649010     0.000000    -27.00000    85.131336     0.760905    43.306507     1.012514 
frames/TS_43_015_-24.0.mrc           10    -24.00060    85.000000    45.000000     -2.50000 MotionCorr/job002/frames/TS_43_015_-24_0_PS.mrc MotionCorr/job002/frames/TS_43_015_-24_0_EVN.mrc MotionCorr/job002/frames/TS_43_015_-24_0_ODD.mrc MotionCorr/job002/frames/TS_43_015_-24_0.mrc MotionCorr/job002/frames/TS_43_015_-24_0.star     4.421890     0.000000     4.421890 CtfFind/job003/frames/TS_43_015_-24_0_PS.ctf:mrc 24845.124001 25433.044116   182.968750   153.404796     0.049548     7.624442     0.529180     0.000000    -24.00000    85.138518     -4.63398    13.743704     1.106529 
frames/TS_43_014_-21.0.mrc           10    -21.00140    85.000000    42.000000     -2.50000 MotionCorr/job002/frames/TS_43_014_-21_0_PS.mrc MotionCorr/job002/frames/TS_43_014_-21_0_EVN.mrc MotionCorr/job002/frames/TS_43_014_-21_0_ODD.mrc MotionCorr/job002/frames/TS_43_014_-21_0.mrc MotionCorr/job002/frames/TS_43_014_-21_0.star     4.970441     0.000000     4.970441 CtfFind/job003/frames/TS_43_014_-21_0_PS.ctf:mrc 24798.021701 25344.952512   330.720703   131.079435     0.066622     6.825691     0.626310     0.000000    -21.00000    85.145291     -0.45011    34.644061     1.089157 
frames/TS_43_011_-18.0.mrc           10    -18.00330    85.000000    33.000000     -2.50000 MotionCorr/job002/frames/TS_43_011_-18_0_PS.mrc MotionCorr/job002/frames/TS_43_011_-18_0_EVN.mrc MotionCorr/job002/frames/TS_43_011_-18_0_ODD.mrc MotionCorr/job002/frames/TS_43_011_-18_0.mrc MotionCorr/job002/frames/TS_43_011_-18_0.star     5.192582     0.000000     5.192582 CtfFind/job003/frames/TS_43_011_-18_0_PS.ctf:mrc 24816.755266 25413.432025   473.890625   126.384654     0.068067     6.698108     0.651080     0.000000    -18.00000    85.151709     2.072359    21.157643     1.259391 
frames/TS_43_010_-15.0.mrc           10    -15.00370    85.000000    30.000000     -2.50000 MotionCorr/job002/frames/TS_43_010_-15_0_PS.mrc MotionCorr/job002/frames/TS_43_010_-15_0_EVN.mrc MotionCorr/job002/frames/TS_43_010_-15_0_ODD.mrc MotionCorr/job002/frames/TS_43_010_-15_0.mrc MotionCorr/job002/frames/TS_43_010_-15_0.star     3.478029     0.000000     3.478029 CtfFind/job003/frames/TS_43_010_-15_0_PS.ctf:mrc 24835.346819 25251.653124    88.986328   131.373503     0.061613     6.825691     0.625790     0.000000    -15.00000    85.157850     7.788935    36.240457     1.299790 
frames/TS_43_007_-12.0.mrc           10    -11.99900    85.000000    21.000000     -2.50000 MotionCorr/job002/frames/TS_43_007_-12_0_PS.mrc MotionCorr/job002/frames/TS_43_007_-12_0_EVN.mrc MotionCorr/job002/frames/TS_43_007_-12_0_ODD.mrc MotionCorr/job002/frames/TS_43_007_-12_0.mrc MotionCorr/job002/frames/TS_43_007_-12_0.star     3.865264     0.000000     3.865264 CtfFind/job003/frames/TS_43_007_-12_0_PS.ctf:mrc 24952.344021 25299.883178   588.361328   136.773808     0.049256     7.096016     0.756730     0.000000    -12.00000    85.163755     5.018557    33.710146     1.370696 
frames/TS_43_006_-9.0.mrc           10     -8.99890    85.000000    18.000000     -2.50000 MotionCorr/job002/frames/TS_43_006_-9_0_PS.mrc MotionCorr/job002/frames/TS_43_006_-9_0_EVN.mrc MotionCorr/job002/frames/TS_43_006_-9_0_ODD.mrc MotionCorr/job002/frames/TS_43_006_-9_0.mrc MotionCorr/job002/frames/TS_43_006_-9_0.star     3.285717     0.000000     3.285717 CtfFind/job003/frames/TS_43_006_-9_0_PS.ctf:mrc 24934.817521 25179.747860   337.947266   149.567530     0.068861     5.599200     0.734410     0.000000     -9.00000    85.169459     5.636985    22.872444     1.427109 
frames/TS_43_003_-6.0.mrc           10     -5.99927    85.000000     9.000000     -2.50000 MotionCorr/job002/frames/TS_43_003_-6_0_PS.mrc MotionCorr/job002/frames/TS_43_003_-6_0_EVN.mrc MotionCorr/job002/frames/TS_43_003_-6_0_ODD.mrc MotionCorr/job002/frames/TS_43_003_-6_0.mrc MotionCorr/job002/frames/TS_43_003_-6_0.star     3.384419     0.000000     3.384419 CtfFind/job003/frames/TS_43_003_-6_0_PS.ctf:mrc 25043.619141 25422.014889   588.732422   141.324009     0.061944     6.125620     0.777030     0.000000     -6.00000    85.175025     6.668840    37.081557     1.345448 
frames/TS_43_002_-3.0.mrc           10     -2.99913    85.000000     6.000000     -2.50000 MotionCorr/job002/frames/TS_43_002_-3_0_PS.mrc MotionCorr/job002/frames/TS_43_002_-3_0_EVN.mrc MotionCorr/job002/frames/TS_43_002_-3_0_ODD.mrc MotionCorr/job002/frames/TS_43_002_-3_0.mrc MotionCorr/job002/frames/TS_43_002_-3_0.star     3.167235     0.000000     3.167235 CtfFind/job003/frames/TS_43_002_-3_0_PS.ctf:mrc 25055.670147 25250.166343   112.949219   134.794894     0.066759     5.826810     0.582620     0.000000     -3.00000    85.180465     6.784833    14.558221     1.451572 
frames/TS_43_000_0.0.mrc           10     0.000000    85.000000     0.000000     -2.50000 MotionCorr/job002/frames/TS_43_000_0_0_PS.mrc MotionCorr/job002/frames/TS_43_000_0_0_EVN.mrc MotionCorr/job002/frames/TS_43_000_0_0_ODD.mrc MotionCorr/job002/frames/TS_43_000_0_0.mrc MotionCorr/job002/frames/TS_43_000_0_0.star     2.810945     0.896793     1.914152 CtfFind/job003/frames/TS_43_000_0_0_PS.ctf:mrc 25011.600116 25248.865193   232.798828   147.256478     0.062880     5.269835     0.692870     0.000000     0.000000    85.185818     -1.93348     -3.94349     1.322777 
frames/TS_43_001_3.0.mrc           10     3.000130    85.000000     3.000000     -2.50000 MotionCorr/job002/frames/TS_43_001_3_0_PS.mrc MotionCorr/job002/frames/TS_43_001_3_0_EVN.mrc MotionCorr/job002/frames/TS_43_001_3_0_ODD.mrc MotionCorr/job002/frames/TS_43_001_3_0.mrc MotionCorr/job002/frames/TS_43_001_3_0.star     3.184465     0.000000     3.184465 CtfFind/job003/frames/TS_43_001_3_0_PS.ctf:mrc 24945.888662 25195.542177   178.857422   131.935090     0.064948     5.688076     0.706130     0.000000     3.000000    85.191125     0.338827    -25.10391     1.340359 
frames/TS_43_004_6.0.mrc           10     5.999270    85.000000    12.000000     -2.50000 MotionCorr/job002/frames/TS_43_004_6_0_PS.mrc MotionCorr/job002/frames/TS_43_004_6_0_EVN.mrc MotionCorr/job002/frames/TS_43_004_6_0_ODD.mrc MotionCorr/job002/frames/TS_43_004_6_0.mrc MotionCorr/job002/frames/TS_43_004_6_0.star     2.978147     0.000000     2.978147 CtfFind/job003/frames/TS_43_004_6_0_PS.ctf:mrc 24900.571845 25138.391153   282.867188   119.791170     0.076066     5.826810     0.567600     0.000000     6.000000    85.196403     -1.49255    -39.73426     1.411850 
frames/TS_43_005_9.0.mrc           10     8.998400    85.000000    15.000000     -2.50000 MotionCorr/job002/frames/TS_43_005_9_0_PS.mrc MotionCorr/job002/frames/TS_43_005_9_0_EVN.mrc MotionCorr/job002/frames/TS_43_005_9_0_ODD.mrc MotionCorr/job002/frames/TS_43_005_9_0.mrc MotionCorr/job002/frames/TS_43_005_9_0.star     3.477681     0.000000     3.477681 CtfFind/job003/frames/TS_43_005_9_0_PS.ctf:mrc 24931.750320 25195.595872   166.478516   131.759811     0.070367     5.923120     0.569470     0.000000     9.000000    85.201687     0.110311    -24.28227     1.444803 
frames/TS_43_008_12.0.mrc           10    11.999000    85.000000    24.000000     -2.50000 MotionCorr/job002/frames/TS_43_008_12_0_PS.mrc MotionCorr/job002/frames/TS_43_008_12_0_EVN.mrc MotionCorr/job002/frames/TS_43_008_12_0_ODD.mrc MotionCorr/job002/frames/TS_43_008_12_0.mrc MotionCorr/job002/frames/TS_43_008_12_0.star     3.335631     0.000000     3.335631 CtfFind/job003/frames/TS_43_008_12_0_PS.ctf:mrc 24929.279099 25204.096656   343.832031   137.983786     0.074413     6.515432     0.543050     0.000000    12.000000    85.207000     -0.88918    -40.96313     1.384724 
frames/TS_43_009_15.0.mrc           10    15.000200    85.000000    27.000000     -2.50000 MotionCorr/job002/frames/TS_43_009_15_0_PS.mrc MotionCorr/job002/frames/TS_43_009_15_0_EVN.mrc MotionCorr/job002/frames/TS_43_009_15_0_ODD.mrc MotionCorr/job002/frames/TS_43_009_15_0.mrc MotionCorr/job002/frames/TS_43_009_15_0.star     3.416277     0.000000     3.416277 CtfFind/job003/frames/TS_43_009_15_0_PS.ctf:mrc 24791.995876 25099.437778   392.593750   138.274438     0.086109     6.456735     0.724480     0.000000    15.000000    85.212382     -3.54359    -21.89633     1.329302 
frames/TS_43_012_18.0.mrc           10    18.000800    85.000000    36.000000     -2.50000 MotionCorr/job002/frames/TS_43_012_18_0_PS.mrc MotionCorr/job002/frames/TS_43_012_18_0_EVN.mrc MotionCorr/job002/frames/TS_43_012_18_0_ODD.mrc MotionCorr/job002/frames/TS_43_012_18_0.mrc MotionCorr/job002/frames/TS_43_012_18_0.star     3.552104     0.000000     3.552104 CtfFind/job003/frames/TS_43_012_18_0_PS.ctf:mrc 24708.587508 25121.253411   227.203125   134.572912     0.083819     6.891323     0.691180     0.000000    18.000000    85.217861     -3.86415    -44.48936     1.260762 
frames/TS_43_013_21.0.mrc           10    20.999900    85.000000    39.000000     -2.50000 MotionCorr/job002/frames/TS_43_013_21_0_PS.mrc MotionCorr/job002/frames/TS_43_013_21_0_EVN.mrc MotionCorr/job002/frames/TS_43_013_21_0_ODD.mrc MotionCorr/job002/frames/TS_43_013_21_0.mrc MotionCorr/job002/frames/TS_43_013_21_0.star     3.772947     0.000000     3.772947 CtfFind/job003/frames/TS_43_013_21_0_PS.ctf:mrc 24837.090549 25146.328840   616.460938   147.682883     0.071382     7.313241     0.628430     0.000000    21.000000    85.223467     -5.64684    -44.44336     1.216682 
frames/TS_43_016_24.0.mrc           10    23.999600    85.000000    48.000000     -2.50000 MotionCorr/job002/frames/TS_43_016_24_0_PS.mrc MotionCorr/job002/frames/TS_43_016_24_0_EVN.mrc MotionCorr/job002/frames/TS_43_016_24_0_ODD.mrc MotionCorr/job002/frames/TS_43_016_24_0.mrc MotionCorr/job002/frames/TS_43_016_24_0.star     3.618342     0.000000     3.618342 CtfFind/job003/frames/TS_43_016_24_0_PS.ctf:mrc 24700.022423 25240.256356   170.056641   139.506485     0.064698     7.166976     0.649240     0.000000    24.000000    85.229234     -9.54272    -42.57948     1.170548 
frames/TS_43_017_27.0.mrc           10    26.999700    85.000000    51.000000     -2.50000 MotionCorr/job002/frames/TS_43_017_27_0_PS.mrc MotionCorr/job002/frames/TS_43_017_27_0_EVN.mrc MotionCorr/job002/frames/TS_43_017_27_0_ODD.mrc MotionCorr/job002/frames/TS_43_017_27_0.mrc MotionCorr/job002/frames/TS_43_017_27_0.star     3.617766     0.000000     3.617766 CtfFind/job003/frames/TS_43_017_27_0_PS.ctf:mrc 24561.015864 25396.468770   420.746094   155.767817     0.081374     8.052782     0.950310     0.000000    27.000000    85.235207     -9.01511    -34.43504     1.066158 
frames/TS_43_020_30.0.mrc           10    29.999800    85.000000    60.000000     -2.50000 MotionCorr/job002/frames/TS_43_020_30_0_PS.mrc MotionCorr/job002/frames/TS_43_020_30_0_EVN.mrc MotionCorr/job002/frames/TS_43_020_30_0_ODD.mrc MotionCorr/job002/frames/TS_43_020_30_0.mrc MotionCorr/job002/frames/TS_43_020_30_0.star     4.117562     0.000000     4.117562 CtfFind/job003/frames/TS_43_020_30_0_PS.ctf:mrc 24986.501015 25154.838350   119.605469   103.690115     0.086438     9.188430     0.669700     0.000000    30.000000    85.241428    -11.86166    -43.66382     1.011198 
frames/TS_43_021_33.0.mrc           10    33.000000    85.000000    63.000000     -2.50000 MotionCorr/job002/frames/TS_43_021_33_0_PS.mrc MotionCorr/job002/frames/TS_43_021_33_0_EVN.mrc MotionCorr/job002/frames/TS_43_021_33_0_ODD.mrc MotionCorr/job002/frames/TS_43_021_33_0.mrc MotionCorr/job002/frames/TS_43_021_33_0.star     4.916295     0.000000     4.916295 CtfFind/job003/frames/TS_43_021_33_0_PS.ctf:mrc 24604.034986 25349.272090   100.339844   134.230159     0.070019     8.740214     0.724740     0.000000    33.000000    85.247959     -8.65236    -32.39800     0.992474 
frames/TS_43_024_36.0.mrc           10    35.999600    85.000000    72.000000     -2.50000 MotionCorr/job002/frames/TS_43_024_36_0_PS.mrc MotionCorr/job002/frames/TS_43_024_36_0_EVN.mrc MotionCorr/job002/frames/TS_43_024_36_0_ODD.mrc MotionCorr/job002/frames/TS_43_024_36_0.mrc MotionCorr/job002/frames/TS_43_024_36_0.star     5.823372     0.000000     5.823372 CtfFind/job003/frames/TS_43_024_36_0_PS.ctf:mrc 24812.887475 25147.160272   271.441406   107.796012     0.112629     9.685102     0.672340     0.000000    36.000000    85.254859    -16.65752    -52.70544     0.885520 
frames/TS_43_025_39.0.mrc           10    38.999200    85.000000    75.000000     -2.50000 MotionCorr/job002/frames/TS_43_025_39_0_PS.mrc MotionCorr/job002/frames/TS_43_025_39_0_EVN.mrc MotionCorr/job002/frames/TS_43_025_39_0_ODD.mrc MotionCorr/job002/frames/TS_43_025_39_0.mrc MotionCorr/job002/frames/TS_43_025_39_0.star     4.309618     0.000000     4.309618 CtfFind/job003/frames/TS_43_025_39_0_PS.ctf:mrc 24873.220132 25418.669107   266.675781   163.494302     0.097874     8.958720     0.485110     0.000000    39.000000    85.262200     -3.82589    -29.62155     0.853041 
frames/TS_43_028_42.0.mrc           10    41.999400    85.000000    84.000000     -2.50000 MotionCorr/job002/frames/TS_43_028_42_0_PS.mrc MotionCorr/job002/frames/TS_43_028_42_0_EVN.mrc MotionCorr/job002/frames/TS_43_028_42_0_ODD.mrc MotionCorr/job002/frames/TS_43_028_42_0.mrc MotionCorr/job002/frames/TS_43_028_42_0.star     4.040794     0.000000     4.040794 CtfFind/job003/frames/TS_43_028_42_0_PS.ctf:mrc 25367.726479 25776.670037   116.673828   150.933385     0.082902     9.555968     0.634540     0.000000    42.000000    85.270065    -18.05682    -50.03001     0.811722 
frames/TS_43_029_45.0.mrc           10    44.999000    85.000000    87.000000     -2.50000 MotionCorr/job002/frames/TS_43_029_45_0_PS.mrc MotionCorr/job002/frames/TS_43_029_45_0_EVN.mrc MotionCorr/job002/frames/TS_43_029_45_0_ODD.mrc MotionCorr/job002/frames/TS_43_029_45_0.mrc MotionCorr/job002/frames/TS_43_029_45_0.star     4.307779     0.000000     4.307779 CtfFind/job003/frames/TS_43_029_45_0_PS.ctf:mrc 25200.272433 25617.471562   117.291016   152.777189     0.105520     9.817775     0.607800     0.000000    45.000000    85.278568     -2.22556    -34.34348     0.811578 
frames/TS_43_032_48.0.mrc           10    47.997100    85.000000    96.000000     -2.50000 MotionCorr/job002/frames/TS_43_032_48_0_PS.mrc MotionCorr/job002/frames/TS_43_032_48_0_EVN.mrc MotionCorr/job002/frames/TS_43_032_48_0_ODD.mrc MotionCorr/job002/frames/TS_43_032_48_0.mrc MotionCorr/job002/frames/TS_43_032_48_0.star     3.090059     0.000000     3.090059 CtfFind/job003/frames/TS_43_032_48_0_PS.ctf:mrc 25323.108312 25809.819577   178.550781   128.267345     0.157173    11.026116     0.630040     0.000000    48.000000    85.287824    -22.58492    -56.31747     0.753664 
frames/TS_43_033_51.0.mrc           10    50.996300    85.000000    99.000000     -2.50000 MotionCorr/job002/frames/TS_43_033_51_0_PS.mrc MotionCorr/job002/frames/TS_43_033_51_0_EVN.mrc MotionCorr/job002/frames/TS_43_033_51_0_ODD.mrc MotionCorr/job002/frames/TS_43_033_51_0.mrc MotionCorr/job002/frames/TS_43_033_51_0.star     5.632723     0.000000     5.632723 CtfFind/job003/frames/TS_43_033_51_0_PS.ctf:mrc 25012.942162 25525.568618   185.080078   133.842834     0.100378    11.944960     0.412290     0.000000    51.000000    85.298023     -7.75070    -33.54613     0.700427 
frames/TS_43_036_54.0.mrc           10    53.996900    85.000000   108.000000     -2.50000 MotionCorr/job002/frames/TS_43_036_54_0_PS.mrc MotionCorr/job002/frames/TS_43_036_54_0_EVN.mrc MotionCorr/job002/frames/TS_43_036_54_0_ODD.mrc MotionCorr/job002/frames/TS_43_036_54_0.mrc MotionCorr/job002/frames/TS_43_036_54_0.star     3.820902     0.000000     3.820902 CtfFind/job003/frames/TS_43_036_54_0_PS.ctf:mrc 25187.979856 25435.792063   101.689453   154.141060     0.150460    12.573642     0.488930     0.000000    54.000000    85.309377    -22.36911    -60.45836     0.670499 
frames/TS_43_037_57.0.mrc           10    56.996000    85.000000   111.000000     -2.50000 MotionCorr/job002/frames/TS_43_037_57_0_PS.mrc MotionCorr/job002/frames/TS_43_037_57_0_EVN.mrc MotionCorr/job002/frames/TS_43_037_57_0_ODD.mrc MotionCorr/job002/frames/TS_43_037_57_0.mrc MotionCorr/job002/frames/TS_43_037_57_0.star     7.472044     0.000000     7.472044 CtfFind/job003/frames/TS_43_037_57_0_PS.ctf:mrc 25377.538450 25558.607330    30.246094   156.746671     0.158437    13.272177     0.996970     0.000000    57.000000    85.322151     -9.53641    -46.50702     0.515043 
frames/TS_43_040_60.0.mrc           10    59.996200    85.000000   120.000000     -2.50000 MotionCorr/job002/frames/TS_43_040_60_0_PS.mrc MotionCorr/job002/frames/TS_43_040_60_0_EVN.mrc MotionCorr/job002/frames/TS_43_040_60_0_ODD.mrc MotionCorr/job002/frames/TS_43_040_60_0.mrc MotionCorr/job002/frames/TS_43_040_60_0.star     5.212197     0.000000     5.212197 CtfFind/job003/frames/TS_43_040_60_0_PS.ctf:mrc 25374.355142 25410.636349   119.343750   140.756955     0.192743    15.248884     0.518320     0.000000    60.000000    85.336729    -28.25006    -79.88299     0.449370 
 
