# RELION postprocess; version 5.0-beta-2-commit-a0b145
# --mask mask_fsc.mrc --i Reconstruct/job062/half1.mrc --o PostProcess/job063/postprocess --angpix -1 --pipeline_control PostProcess/job063/ 

# version 50001

data_general

_rlnFinalResolution                               3.323077
_rlnBfactorUsedForSharpening                      0.000000
_rlnUnfilteredMapHalf1                        Reconstruct/job062/half1.mrc
_rlnUnfilteredMapHalf2                        Reconstruct/job062/half2.mrc
_rlnPostprocessedMap                          PostProcess/job063/postprocess.mrc
_rlnParticleBoxFractionSolventMask               10.682012
_rlnMaskName                                  mask_fsc.mrc
_rlnRandomiseFrom                                 7.005406
_rlnPostprocessedMapMasked                    PostProcess/job063/postprocess_masked.mrc
 

# version 50001

data_fsc

loop_ 
_rlnSpectralIndex #1 
_rlnResolution #2 
_rlnAngstromResolution #3 
_rlnFourierShellCorrelationCorrected #4 
_rlnFourierShellCorrelationParticleMaskFraction #5 
_rlnFourierShellCorrelationUnmaskedMaps #6 
_rlnFourierShellCorrelationMaskedMaps #7 
_rlnCorrectedFourierShellCorrelationPhaseRandomizedMaskedMaps #8 
           0     0.001001   999.000000     1.000000     1.000000     1.000000     1.000000     1.000000 
           1     0.003858   259.200012     0.999111     0.999959     0.999565     0.999111     0.998932 
           2     0.007716   129.600006     0.998235     0.999862     0.998531     0.998235     0.998076 
           3     0.011574    86.400004     0.999518     0.999989     0.999884     0.999518     0.999583 
           4     0.015432    64.800003     0.999841     0.999981     0.999793     0.999841     0.999851 
           5     0.019290    51.840002     0.999888     0.999969     0.999672     0.999888     0.999894 
           6     0.023148    43.200002     0.999833     0.999940     0.999361     0.999833     0.999827 
           7     0.027006    37.028573     0.999613     0.999873     0.998646     0.999613     0.999592 
           8     0.030864    32.400002     0.999117     0.999865     0.998565     0.999117     0.999151 
           9     0.034722    28.800001     0.998769     0.999779     0.997646     0.998769     0.998844 
          10     0.038580    25.920001     0.998186     0.999692     0.996724     0.998186     0.998189 
          11     0.042438    23.563637     0.997748     0.999542     0.995134     0.997748     0.997688 
          12     0.046296    21.600001     0.997303     0.999238     0.991925     0.997303     0.997201 
          13     0.050154    19.938462     0.995947     0.998617     0.985421     0.995947     0.995803 
          14     0.054012    18.514287     0.994435     0.999109     0.990560     0.994435     0.994392 
          15     0.057870    17.280001     0.994402     0.998641     0.985675     0.994402     0.994245 
          16     0.061728    16.200001     0.992952     0.998252     0.981637     0.992952     0.993054 
          17     0.065586    15.247060     0.992601     0.998634     0.985596     0.992601     0.993060 
          18     0.069444    14.400001     0.992936     0.998735     0.986652     0.992936     0.993181 
          19     0.073302    13.642106     0.991975     0.998385     0.983015     0.991975     0.991948 
          20     0.077160    12.960001     0.991030     0.997843     0.977434     0.991030     0.990871 
          21     0.081019    12.342858     0.991149     0.997499     0.973921     0.991149     0.990976 
          22     0.084877    11.781819     0.990893     0.997431     0.973220     0.990893     0.990828 
          23     0.088735    11.269566     0.991595     0.997634     0.975294     0.991595     0.991809 
          24     0.092593    10.800001     0.991900     0.998062     0.979679     0.991900     0.992132 
          25     0.096451    10.368000     0.989312     0.997886     0.977873     0.989312     0.989404 
          26     0.100309     9.969231     0.985758     0.995511     0.954043     0.985758     0.985598 
          27     0.104167     9.600000     0.984300     0.996483     0.963664     0.984300     0.984049 
          28     0.108025     9.257143     0.984012     0.996249     0.961336     0.984012     0.983532 
          29     0.111883     8.937931     0.981323     0.994164     0.940991     0.981323     0.980385 
          30     0.115741     8.640000     0.974764     0.991570     0.916744     0.974764     0.974367 
          31     0.119599     8.361291     0.970226     0.991213     0.913493     0.970226     0.971873 
          32     0.123457     8.100000     0.963993     0.990139     0.903845     0.963993     0.965442 
          33     0.127315     7.854546     0.954936     0.984323     0.854610     0.954936     0.953993 
          34     0.131173     7.623530     0.951426     0.985877     0.867288     0.951426     0.951241 
          35     0.135031     7.405715     0.949036     0.985690     0.865744     0.949036     0.949625 
          36     0.138889     7.200000     0.930457     0.978817     0.812236     0.930457     0.921591 
          37     0.142747     7.005406     0.905918     0.963542     0.712158     0.905918     0.834002 
          38     0.146605     6.821053     0.891088     0.959210     0.687642     0.891088     0.644951 
          39     0.150463     6.646154     0.796985     0.965873     0.725990     0.878770     0.402851 
          40     0.154321     6.480000     0.817548     0.960830     0.696634     0.875744     0.318968 
          41     0.158179     6.321952     0.824755     0.959945     0.691698     0.864679     0.227818 
          42     0.162037     6.171429     0.803785     0.951789     0.648896     0.843549     0.202652 
          43     0.165895     6.027907     0.808955     0.943972     0.611992     0.846165     0.194771 
          44     0.169753     5.890909     0.821195     0.947463     0.628016     0.843130     0.122680 
          45     0.173611     5.760000     0.809948     0.941308     0.600224     0.830202     0.106573 
          46     0.177469     5.634783     0.803971     0.939623     0.592981     0.819366     0.078535 
          47     0.181327     5.514894     0.812261     0.934676     0.572556     0.821711     0.050336 
          48     0.185185     5.400000     0.826295     0.941141     0.599501     0.835382     0.052314 
          49     0.189043     5.289796     0.845438     0.949995     0.640093     0.850504     0.032775 
          50     0.192901     5.184000     0.851820     0.949056     0.635570     0.856173     0.029372 
          51     0.196759     5.082353     0.853008     0.950998     0.644990     0.856499     0.023750 
          52     0.200617     4.984616     0.846888     0.943686     0.610706     0.848902     0.013153 
          53     0.204475     4.890566     0.827845     0.935494     0.575850     0.829842     0.011600 
          54     0.208333     4.800000     0.814249     0.936015     0.577966     0.817655     0.018336 
          55     0.212191     4.712727     0.806874     0.931735     0.560967     0.812629     0.029800 
          56     0.216049     4.628572     0.800727     0.924657     0.534648     0.805291     0.022902 
          57     0.219907     4.547369     0.796815     0.920889     0.521468     0.798294     0.007277 
          58     0.223765     4.468966     0.788415     0.910323     0.487259     0.792138     0.017594 
          59     0.227623     4.393221     0.758361     0.902500     0.464251     0.763501     0.021273 
          60     0.231481     4.320000     0.718178     0.880627     0.408497     0.722671     0.015941 
          61     0.235339     4.249181     0.702156     0.857630     0.360587     0.705580     0.011498 
          62     0.239198     4.180645     0.690497     0.848286     0.343590     0.688604     -0.00611 
          63     0.243056     4.114286     0.641946     0.843868     0.335979     0.640000     -0.00544 
          64     0.246914     4.050000     0.597424     0.801300     0.274060     0.598305     0.002188 
          65     0.250772     3.987692     0.558307     0.742900     0.212911     0.567375     0.020528 
          66     0.254630     3.927273     0.515082     0.738301     0.208927     0.527813     0.026253 
          67     0.258488     3.868657     0.501521     0.713288     0.188903     0.508833     0.014669 
          68     0.262346     3.811765     0.468906     0.669780     0.159578     0.478959     0.018928 
          69     0.266204     3.756522     0.437194     0.652993     0.149778     0.446521     0.016572 
          70     0.270062     3.702857     0.420965     0.638150     0.141703     0.427273     0.010895 
          71     0.273920     3.650704     0.392772     0.567303     0.109320     0.399159     0.010518 
          72     0.277778     3.600000     0.354900     0.512955     0.089747     0.360350     0.008448 
          73     0.281636     3.550685     0.295651     0.468581     0.076252     0.299444     0.005386 
          74     0.285494     3.502703     0.249278     0.442266     0.069104     0.249630 4.694015e-04 
          75     0.289352     3.456000     0.222137     0.414533     0.062163     0.223800     0.002138 
          76     0.293210     3.410526     0.194318     0.241895     0.029004     0.198870     0.005651 
          77     0.297068     3.366234     0.164760     0.264983     0.032648     0.176292     0.013807 
          78     0.300926     3.323077     0.151023     0.225707     0.026564     0.164842     0.016277 
          79     0.304784     3.281013     0.114843     0.199551     0.022806     0.124705     0.011142 
          80     0.308642     3.240000     0.099980     0.160575     0.017593     0.100312 3.685251e-04 
          81     0.312500     3.200000     0.099771     0.164610     0.018112     0.096364     -0.00378 
          82     0.316358     3.160976     0.111043     0.090060     0.009180     0.107265     -0.00425 
          83     0.320216     3.122892     0.087342     0.147432     0.015931     0.080798     -0.00717 
          84     0.324074     3.085714     0.035315     -0.07478     -0.00656     0.036508     0.001236 
          85     0.327932     3.049412     0.023040     0.160824     0.017625     0.022155 -9.05747e-04 
          86     0.331790     3.013954     0.029940     0.068098     0.006794     0.024856     -0.00524 
          87     0.335648     2.979310     0.026629     0.050867     0.004992     0.019826     -0.00699 
          88     0.339506     2.945455 5.374973e-04     0.060982     0.006043 1.791948e-04 -3.58495e-04 
          89     0.343364     2.912360     -0.01843     0.061630     0.006111     -0.01278     0.005551 
          90     0.347222     2.880000     -0.02574     -0.00593 -5.52261e-04     -0.02312     0.002554 
          91     0.351080     2.848352     -0.04144     -0.04126     -0.00372     -0.03241     0.008675 
          92     0.354938     2.817391     -0.04411     -0.02672     -0.00244     -0.03034     0.013184 
          93     0.358796     2.787097     -0.02336     -0.03882     -0.00351     -0.01325     0.009883 
          94     0.362654     2.757447     0.002034     -0.05180     -0.00463     0.004806     0.002778 
          95     0.366512     2.728421     0.002865     0.081904     0.008282     0.009610     0.006765 
          96     0.370370     2.700000     0.006068     -0.04461     -0.00401     0.008871     0.002821 
 

# version 50001

data_guinier

loop_ 
_rlnResolutionSquared #1 
_rlnLogAmplitudesOriginal #2 
_rlnLogAmplitudesWeighted #3 
    0.000000    -27.36452    -27.36452 
1.488435e-05     -4.87072     -4.87094 
5.953741e-05     -5.97198     -5.97242 
1.339592e-04     -6.08759     -6.08771 
2.381496e-04     -6.04009     -6.04013 
3.721088e-04     -6.45096     -6.45099 
5.358367e-04     -6.88749     -6.88753 
7.293333e-04     -7.18097     -7.18107 
9.525986e-04     -7.28716     -7.28738 
    0.001206     -7.50586     -7.50617 
    0.001488     -7.54246     -7.54291 
    0.001801     -7.76690     -7.76747 
    0.002143     -8.06877     -8.06945 
    0.002515     -8.22117     -8.22218 
    0.002917     -8.00007     -8.00147 
    0.003349     -8.06526     -8.06667 
    0.003810     -8.15174     -8.15351 
    0.004302     -8.21328     -8.21514 
    0.004823     -8.11938     -8.12116 
    0.005373     -8.10583     -8.10785 
    0.005954     -8.02735     -8.02961 
    0.006564     -8.04516     -8.04739 
    0.007204     -8.15916     -8.16146 
    0.007874     -8.10864     -8.11075 
    0.008573     -7.95600     -7.95804 
    0.009303     -7.97672     -7.97941 
    0.010062     -8.23061     -8.23421 
    0.010851     -8.16705     -8.17102 
    0.011669     -8.23542     -8.23946 
    0.012518     -8.38903     -8.39377 
    0.013396     -8.45360     -8.46003 
    0.014304     -8.50367     -8.51129 
    0.015242     -8.59461     -8.60387 
    0.016209     -8.69925     -8.71091 
    0.017206     -8.65895     -8.67155 
    0.018233     -8.68315     -8.69640 
    0.019290     -8.82410     -8.84245 
    0.020377     -8.95139     -8.97670 
    0.021493     -9.03635     -9.06601 
    0.022639     -8.94204     -9.00198 
    0.023815     -8.96273     -9.01563 
    0.025021     -8.97666     -9.02714 
    0.026256     -9.00671     -9.06430 
    0.027521     -9.05515     -9.11096 
    0.028816     -8.99811     -9.04979 
    0.030141     -9.01193     -9.06740 
    0.031495     -8.99957     -9.05709 
    0.032880     -8.98990     -9.04458 
    0.034294     -8.92871     -8.97868 
    0.035737     -8.86294     -8.90668 
    0.037211     -8.82859     -8.87029 
    0.038714     -8.80191     -8.84324 
    0.040247     -8.83666     -8.87993 
    0.041810     -8.86939     -8.91885 
    0.043403     -8.85069     -8.90469 
    0.045025     -8.83250     -8.88902 
    0.046677     -8.85060     -8.90923 
    0.048359     -8.85007     -8.91007 
    0.050071     -8.89353     -8.95649 
    0.051812     -8.92275     -8.99666 
    0.053584     -8.98259     -9.07217 
    0.055385     -9.03700     -9.13317 
    0.057215     -9.03588     -9.13699 
    0.059076     -9.05060     -9.17360 
    0.060966     -9.09392     -9.23911 
    0.062886     -9.15310     -9.31975 
    0.064836     -9.15360     -9.34648 
    0.066816     -9.17788     -9.37960 
    0.068825     -9.19432     -9.41868 
    0.070864     -9.19100     -9.43946 
    0.072933     -9.20718     -9.46887 
    0.075032     -9.23430     -9.52064 
    0.077160     -9.24826     -9.57151 
    0.079319     -9.26671     -9.65893 
    0.081507     -9.26939     -9.72869 
    0.083724     -9.28530     -9.79126 
    0.085972     -9.29385     -9.85519 
    0.088249     -9.30094     -9.93225 
    0.090556     -9.31914     -9.98805 
    0.092893     -9.30564    -10.09552 
    0.095260     -9.31828    -10.17075 
    0.097656     -9.31468    -10.16810 
    0.100082     -9.31781    -10.12280 
    0.102538     -9.30823    -10.22249 
    0.105024     -9.31240    -10.65491 
    0.107539     -9.30080    -10.85087 
    0.110085     -9.30609    -10.72854 
    0.112660     -9.29966    -10.77911 
    0.115264     -9.29947    -12.71746 
    0.117899     -9.28774    -99.00000 
    0.120563     -9.27880    -99.00000 
    0.123257     -9.26980    -99.00000 
    0.125981     -9.27397    -99.00000 
    0.128735     -9.26908    -99.00000 
    0.131518     -9.26827    -99.00000 
    0.134331     -9.26736    -99.00000 
    0.137174     -9.54744    -99.00000 
 
