# RELION postprocess; version 5.0-beta-2-commit-a0b145
# --mask mask_fsc.mrc --i Reconstruct/job065/half1.mrc --o PostProcess/job066/postprocess --angpix -1 --pipeline_control PostProcess/job066/ 

# version 50001

data_general

_rlnFinalResolution                               3.410526
_rlnBfactorUsedForSharpening                      0.000000
_rlnUnfilteredMapHalf1                        Reconstruct/job065/half1.mrc
_rlnUnfilteredMapHalf2                        Reconstruct/job065/half2.mrc
_rlnPostprocessedMap                          PostProcess/job066/postprocess.mrc
_rlnParticleBoxFractionSolventMask               10.682012
_rlnMaskName                                  mask_fsc.mrc
_rlnRandomiseFrom                                 7.005406
_rlnPostprocessedMapMasked                    PostProcess/job066/postprocess_masked.mrc
 

# version 50001

data_fsc

loop_ 
_rlnSpectralIndex #1 
_rlnResolution #2 
_rlnAngstromResolution #3 
_rlnFourierShellCorrelationCorrected #4 
_rlnFourierShellCorrelationParticleMaskFraction #5 
_rlnFourierShellCorrelationUnmaskedMaps #6 
_rlnFourierShellCorrelationMaskedMaps #7 
_rlnCorrectedFourierShellCorrelationPhaseRandomizedMaskedMaps #8 
           0     0.001001   999.000000     1.000000     1.000000     1.000000     1.000000     1.000000 
           1     0.003858   259.200012     0.999174     0.999957     0.999544     0.999174     0.998987 
           2     0.007716   129.600006     0.998292     0.999861     0.998518     0.998292     0.998112 
           3     0.011574    86.400004     0.999495     0.999988     0.999876     0.999495     0.999569 
           4     0.015432    64.800003     0.999834     0.999980     0.999788     0.999834     0.999844 
           5     0.019290    51.840002     0.999881     0.999967     0.999652     0.999881     0.999889 
           6     0.023148    43.200002     0.999817     0.999938     0.999341     0.999817     0.999820 
           7     0.027006    37.028573     0.999565     0.999867     0.998578     0.999565     0.999565 
           8     0.030864    32.400002     0.998981     0.999855     0.998450     0.998981     0.999040 
           9     0.034722    28.800001     0.998538     0.999771     0.997556     0.998538     0.998604 
          10     0.038580    25.920001     0.997855     0.999677     0.996562     0.997855     0.997844 
          11     0.042438    23.563637     0.997558     0.999518     0.994873     0.997558     0.997477 
          12     0.046296    21.600001     0.997341     0.999211     0.991632     0.997341     0.997271 
          13     0.050154    19.938462     0.996042     0.998586     0.985101     0.996042     0.995918 
          14     0.054012    18.514287     0.994374     0.999103     0.990506     0.994374     0.994296 
          15     0.057870    17.280001     0.994245     0.998657     0.985843     0.994245     0.994098 
          16     0.061728    16.200001     0.992353     0.998151     0.980600     0.992353     0.992502 
          17     0.065586    15.247060     0.991692     0.998581     0.985046     0.991692     0.992264 
          18     0.069444    14.400001     0.992333     0.998652     0.985791     0.992333     0.992628 
          19     0.073302    13.642106     0.991355     0.998312     0.982256     0.991355     0.991361 
          20     0.077160    12.960001     0.990101     0.997775     0.976732     0.990101     0.989953 
          21     0.081019    12.342858     0.990382     0.997543     0.974365     0.990382     0.990223 
          22     0.084877    11.781819     0.990432     0.997388     0.972790     0.990432     0.990324 
          23     0.088735    11.269566     0.990979     0.997636     0.975318     0.990979     0.991233 
          24     0.092593    10.800001     0.991369     0.997996     0.978997     0.991369     0.991784 
          25     0.096451    10.368000     0.989066     0.997733     0.976299     0.989066     0.989329 
          26     0.100309     9.969231     0.985485     0.995252     0.951514     0.985485     0.985445 
          27     0.104167     9.600000     0.983608     0.996395     0.962792     0.983608     0.983386 
          28     0.108025     9.257143     0.982389     0.996060     0.959461     0.982389     0.981949 
          29     0.111883     8.937931     0.979818     0.993875     0.938236     0.979818     0.978789 
          30     0.115741     8.640000     0.973285     0.991274     0.914051     0.973285     0.973002 
          31     0.119599     8.361291     0.969395     0.991071     0.912208     0.969395     0.971193 
          32     0.123457     8.100000     0.963418     0.989940     0.902079     0.963418     0.965012 
          33     0.127315     7.854546     0.952527     0.983782     0.850268     0.952527     0.952056 
          34     0.131173     7.623530     0.949145     0.985312     0.862636     0.949145     0.948798 
          35     0.135031     7.405715     0.946401     0.985360     0.863026     0.946401     0.946522 
          36     0.138889     7.200000     0.925077     0.978530     0.810124     0.925077     0.917403 
          37     0.142747     7.005406     0.897204     0.961754     0.701857     0.897204     0.829119 
          38     0.146605     6.821053     0.887977     0.957977     0.680927     0.887977     0.639348 
          39     0.150463     6.646154     0.806346     0.965156     0.721689     0.883004     0.395851 
          40     0.154321     6.480000     0.828775     0.960942     0.697264     0.882496     0.313743 
          41     0.158179     6.321952     0.828567     0.959952     0.691735     0.867849     0.229140 
          42     0.162037     6.171429     0.803472     0.951030     0.645149     0.844402     0.208264 
          43     0.165895     6.027907     0.811218     0.943817     0.611294     0.847710     0.193304 
          44     0.169753     5.890909     0.818745     0.945608     0.619409     0.840527     0.120169 
          45     0.173611     5.760000     0.806466     0.938763     0.589343     0.827183     0.107043 
          46     0.177469     5.634783     0.805364     0.937590     0.584438     0.820394     0.077222 
          47     0.181327     5.514894     0.813060     0.935098     0.574248     0.821763     0.046556 
          48     0.185185     5.400000     0.825880     0.940348     0.596083     0.834704     0.050678 
          49     0.189043     5.289796     0.845072     0.947660     0.628941     0.850235     0.033327 
          50     0.192901     5.184000     0.850119     0.947735     0.629292     0.854967     0.032344 
          51     0.196759     5.082353     0.848310     0.951148     0.645726     0.851994     0.024290 
          52     0.200617     4.984616     0.837891     0.944137     0.612733     0.839980     0.012883 
          53     0.204475     4.890566     0.815236     0.935224     0.574757     0.817853     0.014164 
          54     0.208333     4.800000     0.802682     0.933665     0.568524     0.807164     0.022714 
          55     0.212191     4.712727     0.801211     0.931867     0.561479     0.807839     0.033339 
          56     0.216049     4.628572     0.798529     0.925367     0.537192     0.804442     0.029349 
          57     0.219907     4.547369     0.789440     0.920489     0.520102     0.792439     0.014243 
          58     0.223765     4.468966     0.776949     0.910660     0.488292     0.781557     0.020658 
          59     0.227623     4.393221     0.752667     0.899066     0.454706     0.757393     0.019108 
          60     0.231481     4.320000     0.720303     0.881385     0.410246     0.722127     0.006522 
          61     0.235339     4.249181     0.699274     0.852769     0.351586     0.700020     0.002480 
          62     0.239198     4.180645     0.682752     0.847339     0.341936     0.682589 -5.16335e-04 
          63     0.243056     4.114286     0.645261     0.844739     0.337458     0.645657     0.001117 
          64     0.246914     4.050000     0.596732     0.798929     0.271120     0.598645     0.004745 
          65     0.250772     3.987692     0.549841     0.753779     0.222753     0.557597     0.017229 
          66     0.254630     3.927273     0.510018     0.729233     0.201358     0.520569     0.021535 
          67     0.258488     3.868657     0.497367     0.694445     0.175436     0.504233     0.013660 
          68     0.262346     3.811765     0.447384     0.669733     0.159550     0.460943     0.024537 
          69     0.266204     3.756522     0.416349     0.648402     0.147224     0.427357     0.018860 
          70     0.270062     3.702857     0.409144     0.638794     0.142042     0.413863     0.007987 
          71     0.273920     3.650704     0.386320     0.534540     0.097073     0.392058     0.009349 
          72     0.277778     3.600000     0.349054     0.508227     0.088213     0.356628     0.011634 
          73     0.281636     3.550685     0.303550     0.496986     0.084663     0.307821     0.006132 
          74     0.285494     3.502703     0.266516     0.446593     0.070240     0.262280     -0.00577 
          75     0.289352     3.456000     0.244676     0.422305     0.064051     0.240571     -0.00543 
          76     0.293210     3.410526     0.192970     0.284322     0.035858     0.195064     0.002596 
          77     0.297068     3.366234     0.132791     0.252471     0.030649     0.149395     0.019147 
          78     0.300926     3.323077     0.139498     0.186426     0.021001     0.156898     0.020220 
          79     0.304784     3.281013     0.123739     0.171991     0.019074     0.136127     0.014137 
          80     0.308642     3.240000     0.090743     0.043092     0.004198     0.100549     0.010784 
          81     0.312500     3.200000     0.085379     0.057841     0.005714     0.090018     0.005072 
          82     0.316358     3.160976     0.094932     0.105482     0.010919     0.090077     -0.00536 
          83     0.320216     3.122892     0.064876     0.127092     0.013447     0.055230     -0.01032 
          84     0.324074     3.085714     0.029002     -0.03278     -0.00298     0.021297     -0.00793 
          85     0.327932     3.049412     0.013578     0.098137     0.010084     0.007576     -0.00608 
          86     0.331790     3.013954     0.017639     0.061912     0.006141     0.009161     -0.00863 
          87     0.335648     2.979310     0.031240     -0.14907     -0.01229     0.021946     -0.00959 
          88     0.339506     2.945455     0.037902     0.095184     0.009752     0.035405     -0.00259 
          89     0.343364     2.912360     -0.00212     0.094055     0.009626     0.003449     0.005558 
          90     0.347222     2.880000     -0.04452     -0.03658     -0.00331     -0.03335     0.010697 
          91     0.351080     2.848352     -0.05371     -0.12743     -0.01069     -0.03574     0.017062 
          92     0.354938     2.817391     -0.03333     -0.14479     -0.01198     -0.02075     0.012180 
          93     0.358796     2.787097     -0.02529     -0.08665     -0.00752     -0.02203     0.003179 
          94     0.362654     2.757447     -0.01087     -0.28223     -0.02104     -0.01574     -0.00482 
          95     0.366512     2.728421     -0.00636     0.100006     0.010295     -0.00786     -0.00149 
          96     0.370370     2.700000 -3.14454e-04     0.122053     0.012847     -0.00112 -8.02474e-04 
 

# version 50001

data_guinier

loop_ 
_rlnResolutionSquared #1 
_rlnLogAmplitudesOriginal #2 
_rlnLogAmplitudesWeighted #3 
    0.000000    -26.01132    -26.01132 
1.488435e-05     -4.87173     -4.87193 
5.953741e-05     -5.97469     -5.97512 
1.339592e-04     -6.08761     -6.08773 
2.381496e-04     -6.04136     -6.04140 
3.721088e-04     -6.45242     -6.45245 
5.358367e-04     -6.88979     -6.88984 
7.293333e-04     -7.18467     -7.18478 
9.525986e-04     -7.29151     -7.29176 
    0.001206     -7.50956     -7.50993 
    0.001488     -7.54642     -7.54695 
    0.001801     -7.77179     -7.77240 
    0.002143     -8.07622     -8.07689 
    0.002515     -8.22501     -8.22600 
    0.002917     -8.00483     -8.00624 
    0.003349     -8.07178     -8.07323 
    0.003810     -8.15968     -8.16160 
    0.004302     -8.22167     -8.22376 
    0.004823     -8.12786     -8.12978 
    0.005373     -8.11400     -8.11618 
    0.005954     -8.03860     -8.04109 
    0.006564     -8.05467     -8.05709 
    0.007204     -8.16545     -8.16786 
    0.007874     -8.11825     -8.12052 
    0.008573     -7.96616     -7.96833 
    0.009303     -7.98484     -7.98760 
    0.010062     -8.23911     -8.24278 
    0.010851     -8.17442     -8.17857 
    0.011669     -8.24768     -8.25214 
    0.012518     -8.39923     -8.40435 
    0.013396     -8.46330     -8.47012 
    0.014304     -8.51182     -8.51965 
    0.015242     -8.60244     -8.61184 
    0.016209     -8.70386     -8.71616 
    0.017206     -8.66689     -8.68011 
    0.018233     -8.68920     -8.70316 
    0.019290     -8.83276     -8.85261 
    0.020377     -8.96973     -8.99758 
    0.021493     -9.04817     -9.07876 
    0.022639     -8.95390     -9.01060 
    0.023815     -8.97078     -9.01994 
    0.025021     -8.98301     -9.03223 
    0.026256     -9.01473     -9.07242 
    0.027521     -9.06310     -9.11813 
    0.028816     -9.00324     -9.05573 
    0.030141     -9.02294     -9.07960 
    0.031495     -9.00258     -9.05962 
    0.032880     -8.99310     -9.04751 
    0.034294     -8.93134     -8.98145 
    0.035737     -8.86749     -8.91134 
    0.037211     -8.82697     -8.86921 
    0.038714     -8.79849     -8.84131 
    0.040247     -8.83373     -8.87990 
    0.041810     -8.85703     -8.91071 
    0.043403     -8.84223     -8.90019 
    0.045025     -8.82060     -8.87907 
    0.046677     -8.83467     -8.89408 
    0.048359     -8.83259     -8.89518 
    0.050071     -8.87265     -8.93971 
    0.051812     -8.91133     -8.98739 
    0.053584     -8.96536     -9.05407 
    0.055385     -9.03017     -9.12755 
    0.057215     -9.02710     -9.13155 
    0.059076     -9.04315     -9.16457 
    0.060966     -9.09360     -9.23915 
    0.062886     -9.14198     -9.31355 
    0.064836     -9.14746     -9.34360 
    0.066816     -9.17705     -9.38155 
    0.068825     -9.19149     -9.43196 
    0.070864     -9.18582     -9.45141 
    0.072933     -9.18795     -9.45971 
    0.075032     -9.23227     -9.52457 
    0.077160     -9.23946     -9.56885 
    0.079319     -9.25297     -9.63505 
    0.081507     -9.25682     -9.68954 
    0.083724     -9.27853     -9.74530 
    0.085972     -9.29337     -9.85763 
    0.088249     -9.29597    -10.02123 
    0.090556     -9.30520    -10.00877 
    0.092893     -9.30273    -10.05927 
    0.095260     -9.31815    -10.21487 
    0.097656     -9.31400    -10.23872 
    0.100082     -9.31260    -10.18867 
    0.102538     -9.30380    -10.35629 
    0.105024     -9.30770    -10.74561 
    0.107539     -9.30398    -11.11381 
    0.110085     -9.31156    -10.99256 
    0.112660     -9.31216    -10.71399 
    0.115264     -9.29796    -10.60637 
    0.117899     -9.28422    -99.00000 
    0.120563     -9.28523    -99.00000 
    0.123257     -9.28518    -99.00000 
    0.125981     -9.28753    -99.00000 
    0.128735     -9.27901    -99.00000 
    0.131518     -9.28334    -99.00000 
    0.134331     -9.26636    -99.00000 
    0.137174     -9.54083    -99.00000 
 
