# RELION postprocess; version 5.0-beta-2-commit-a0b145
# --mask mask_fsc.mrc --i Reconstruct/job078/half1.mrc --o PostProcess/job079/postprocess --angpix -1 --auto_bfac --autob_lowres 10 --pipeline_control PostProcess/job079/ 

# version 50001

data_general

_rlnFinalResolution                               3.323077
_rlnBfactorUsedForSharpening                     -82.70203
_rlnUnfilteredMapHalf1                        Reconstruct/job078/half1.mrc
_rlnUnfilteredMapHalf2                        Reconstruct/job078/half2.mrc
_rlnPostprocessedMap                          PostProcess/job079/postprocess.mrc
_rlnParticleBoxFractionSolventMask               10.682012
_rlnMaskName                                  mask_fsc.mrc
_rlnRandomiseFrom                                 7.005406
_rlnPostprocessedMapMasked                    PostProcess/job079/postprocess_masked.mrc
_rlnFittedSlopeGuinierPlot                       -20.67551
_rlnFittedInterceptGuinierPlot                    -8.23523
_rlnCorrelationFitGuinierPlot                     0.829433
 

# version 50001

data_fsc

loop_ 
_rlnSpectralIndex #1 
_rlnResolution #2 
_rlnAngstromResolution #3 
_rlnFourierShellCorrelationCorrected #4 
_rlnFourierShellCorrelationParticleMaskFraction #5 
_rlnFourierShellCorrelationUnmaskedMaps #6 
_rlnFourierShellCorrelationMaskedMaps #7 
_rlnCorrectedFourierShellCorrelationPhaseRandomizedMaskedMaps #8 
           0     0.001001   999.000000     1.000000     1.000000     1.000000     1.000000     1.000000 
           1     0.003858   259.200012     0.999076     0.999957     0.999537     0.999076     0.998896 
           2     0.007716   129.600006     0.998214     0.999865     0.998558     0.998214     0.998052 
           3     0.011574    86.400004     0.999535     0.999988     0.999868     0.999535     0.999607 
           4     0.015432    64.800003     0.999836     0.999979     0.999779     0.999836     0.999840 
           5     0.019290    51.840002     0.999869     0.999965     0.999622     0.999869     0.999875 
           6     0.023148    43.200002     0.999790     0.999934     0.999294     0.999790     0.999786 
           7     0.027006    37.028573     0.999531     0.999854     0.998444     0.999531     0.999529 
           8     0.030864    32.400002     0.999027     0.999844     0.998334     0.999027     0.999064 
           9     0.034722    28.800001     0.998606     0.999757     0.997413     0.998606     0.998629 
          10     0.038580    25.920001     0.997956     0.999661     0.996386     0.997956     0.997912 
          11     0.042438    23.563637     0.997648     0.999511     0.994805     0.997648     0.997536 
          12     0.046296    21.600001     0.997362     0.999205     0.991568     0.997362     0.997256 
          13     0.050154    19.938462     0.995997     0.998592     0.985161     0.995997     0.995828 
          14     0.054012    18.514287     0.994277     0.999067     0.990125     0.994277     0.994144 
          15     0.057870    17.280001     0.994128     0.998628     0.985535     0.994128     0.994022 
          16     0.061728    16.200001     0.992347     0.998172     0.980813     0.992347     0.992551 
          17     0.065586    15.247060     0.991704     0.998562     0.984846     0.991704     0.992302 
          18     0.069444    14.400001     0.992345     0.998659     0.985857     0.992345     0.992640 
          19     0.073302    13.642106     0.991225     0.998290     0.982027     0.991225     0.991138 
          20     0.077160    12.960001     0.989972     0.997670     0.975660     0.989972     0.989732 
          21     0.081019    12.342858     0.990285     0.997479     0.973717     0.990285     0.990011 
          22     0.084877    11.781819     0.990117     0.997326     0.972162     0.990117     0.990016 
          23     0.088735    11.269566     0.990695     0.997555     0.974484     0.990695     0.990926 
          24     0.092593    10.800001     0.990983     0.997923     0.978250     0.990983     0.991351 
          25     0.096451    10.368000     0.988450     0.997627     0.975222     0.988450     0.988797 
          26     0.100309     9.969231     0.985044     0.995141     0.950426     0.985044     0.984979 
          27     0.104167     9.600000     0.983163     0.996357     0.962415     0.983163     0.982769 
          28     0.108025     9.257143     0.982025     0.995916     0.958037     0.982025     0.981468 
          29     0.111883     8.937931     0.978875     0.993652     0.936114     0.978875     0.977841 
          30     0.115741     8.640000     0.972319     0.991017     0.911718     0.972319     0.971881 
          31     0.119599     8.361291     0.968615     0.990908     0.910741     0.968615     0.970301 
          32     0.123457     8.100000     0.963235     0.989816     0.900981     0.963235     0.964843 
          33     0.127315     7.854546     0.953026     0.984243     0.853963     0.953026     0.952254 
          34     0.131173     7.623530     0.949498     0.985651     0.865422     0.949498     0.949175 
          35     0.135031     7.405715     0.946389     0.985329     0.862780     0.946389     0.946456 
          36     0.138889     7.200000     0.925161     0.978131     0.807218     0.925161     0.916857 
          37     0.142747     7.005406     0.898375     0.961132     0.698334     0.898375     0.829777 
          38     0.146605     6.821053     0.889045     0.958895     0.685916     0.889045     0.643759 
          39     0.150463     6.646154     0.802833     0.965530     0.723927     0.881595     0.399470 
          40     0.154321     6.480000     0.826616     0.960318     0.693771     0.881465     0.316346 
          41     0.158179     6.321952     0.830749     0.959201     0.687590     0.870025     0.232062 
          42     0.162037     6.171429     0.809436     0.951051     0.645250     0.848870     0.206932 
          43     0.165895     6.027907     0.816998     0.944541     0.614555     0.851929     0.190878 
          44     0.169753     5.890909     0.824224     0.947945     0.630284     0.845704     0.122201 
          45     0.173611     5.760000     0.809384     0.940914     0.598518     0.830548     0.111029 
          46     0.177469     5.634783     0.810253     0.939560     0.592713     0.825113     0.078315 
          47     0.181327     5.514894     0.821567     0.936997     0.581986     0.830265     0.048750 
          48     0.185185     5.400000     0.829632     0.942047     0.603448     0.838924     0.054540 
          49     0.189043     5.289796     0.843634     0.949697     0.638653     0.848811     0.033107 
          50     0.192901     5.184000     0.849538     0.950041     0.640317     0.853177     0.024192 
          51     0.196759     5.082353     0.848450     0.951076     0.645375     0.850672     0.014661 
          52     0.200617     4.984616     0.844064     0.945980     0.621122     0.844964     0.005773 
          53     0.204475     4.890566     0.830864     0.937581     0.584401     0.832980     0.012512 
          54     0.208333     4.800000     0.818764     0.937832     0.585446     0.823443     0.025813 
          55     0.212191     4.712727     0.813549     0.934116     0.570317     0.819772     0.033376 
          56     0.216049     4.628572     0.808168     0.926894     0.542736     0.812749     0.023877 
          57     0.219907     4.547369     0.797574     0.924199     0.533016     0.799320     0.008627 
          58     0.223765     4.468966     0.788164     0.913612     0.497500     0.791297     0.014788 
          59     0.227623     4.393221     0.768498     0.907416     0.478495     0.771937     0.014856 
          60     0.231481     4.320000     0.738898     0.887846     0.425646     0.740949     0.007858 
          61     0.235339     4.249181     0.718036     0.859850     0.364818     0.718097 2.175911e-04 
          62     0.239198     4.180645     0.694748     0.855020     0.355711     0.693010     -0.00569 
          63     0.243056     4.114286     0.645717     0.849933     0.346495     0.645796 2.233331e-04 
          64     0.246914     4.050000     0.601418     0.807448     0.281901     0.601736 7.969880e-04 
          65     0.250772     3.987692     0.560331     0.760860     0.229496     0.566024     0.012948 
          66     0.254630     3.927273     0.514453     0.743514     0.213451     0.527034     0.025912 
          67     0.258488     3.868657     0.497223     0.713651     0.189175     0.507779     0.020996 
          68     0.262346     3.811765     0.462297     0.689273     0.171954     0.476089     0.025650 
          69     0.266204     3.756522     0.443713     0.672179     0.161041     0.451854     0.014635 
          70     0.270062     3.702857     0.433885     0.656543     0.151789     0.433198     -0.00121 
          71     0.273920     3.650704     0.407431     0.571627     0.111049     0.408922     0.002517 
          72     0.277778     3.600000     0.366287     0.555032     0.104562     0.373297     0.011062 
          73     0.281636     3.550685     0.310678     0.503334     0.086651     0.317532     0.009943 
          74     0.285494     3.502703     0.268772     0.457142     0.073073     0.269065 4.017700e-04 
          75     0.289352     3.456000     0.244276     0.444356     0.069651     0.245742     0.001940 
          76     0.293210     3.410526     0.207311     0.308914     0.040165     0.211897     0.005785 
          77     0.297068     3.366234     0.165720     0.336462     0.045319     0.182165     0.019712 
          78     0.300926     3.323077     0.161875     0.295414     0.037768     0.178428     0.019750 
          79     0.304784     3.281013     0.127390     0.278759     0.034919     0.142053     0.016804 
          80     0.308642     3.240000     0.096930     0.175223     0.019501     0.107416     0.011612 
          81     0.312500     3.200000     0.091221     0.089004     0.009063     0.098796     0.008336 
          82     0.316358     3.160976     0.102717     0.139446     0.014943     0.098096     -0.00515 
          83     0.320216     3.122892     0.077999     0.116159     0.012154     0.064477     -0.01467 
          84     0.324074     3.085714     0.037471     0.015086     0.001432     0.026237     -0.01167 
          85     0.327932     3.049412     0.016215     -0.09375     -0.00809     0.006889     -0.00948 
          86     0.331790     3.013954     0.033887     0.134009     0.014280     0.023265     -0.01099 
          87     0.335648     2.979310     0.028260     -0.06372     -0.00564     0.021511     -0.00695 
          88     0.339506     2.945455     0.002377     -0.00601 -5.59819e-04     0.005085     0.002714 
          89     0.343364     2.912360     -0.03271     0.078686     0.007932     -0.02472     0.007736 
          90     0.347222     2.880000     -0.06022     -0.09997     -0.00858     -0.05335     0.006486 
          91     0.351080     2.848352     -0.06239     -0.16340     -0.01332     -0.05026     0.011424 
          92     0.354938     2.817391     -0.05069     -0.22215     -0.01731     -0.03421     0.015680 
          93     0.358796     2.787097     -0.04269     -0.12038     -0.01016     -0.03473     0.007636 
          94     0.362654     2.757447     -0.02221     -0.15453     -0.01269     -0.02853     -0.00618 
          95     0.366512     2.728421     -0.00587     0.030643     0.002951     -0.00718     -0.00131 
          96     0.370370     2.700000 6.116309e-04     0.085447     0.008671     0.004128     0.003519 
 

# version 50001

data_guinier

loop_ 
_rlnResolutionSquared #1 
_rlnLogAmplitudesOriginal #2 
_rlnLogAmplitudesWeighted #3 
_rlnLogAmplitudesSharpened #4 
_rlnLogAmplitudesIntercept #5 
    0.000000    -26.59977    -26.59977    -26.59977     -8.23523 
1.488435e-05     -4.92279     -4.92302     -4.92254     -8.23523 
5.953741e-05     -6.02532     -6.02577     -6.02430     -8.23523 
1.339592e-04     -6.13860     -6.13871     -6.13571     -8.23523 
2.381496e-04     -6.09343     -6.09347     -6.08834     -8.23523 
3.721088e-04     -6.50419     -6.50422     -6.49639     -8.23523 
5.358367e-04     -6.94104     -6.94109     -6.92966     -8.23523 
7.293333e-04     -7.23637     -7.23648     -7.22113     -8.23523 
9.525986e-04     -7.34122     -7.34147     -7.32166     -8.23523 
    0.001206     -7.55901     -7.55936     -7.53411     -8.23523 
    0.001488     -7.59538     -7.59590     -7.56462     -8.23523 
    0.001801     -7.82097     -7.82156     -7.78403     -8.23523 
    0.002143     -8.12451     -8.12517     -8.08076     -8.23523 
    0.002515     -8.27461     -8.27561     -8.22306     -8.23523 
    0.002917     -8.05463     -8.05607     -7.99519     -8.23523 
    0.003349     -8.12232     -8.12379     -8.05446     -8.23523 
    0.003810     -8.20890     -8.21082     -8.13197     -8.23523 
    0.004302     -8.26727     -8.26936     -8.17983     -8.23523 
    0.004823     -8.17607     -8.17800     -8.07778     -8.23523 
    0.005373     -8.16201     -8.16422     -8.05260     -8.23523 
    0.005954     -8.08478     -8.08731     -7.96402     -8.23523 
    0.006564     -8.10073     -8.10317     -7.96713     -8.23523 
    0.007204     -8.21319     -8.21568     -8.06638     -8.23523 
    0.007874     -8.16505     -8.16739     -8.00408     -8.23523 
    0.008573     -8.01355     -8.01582     -7.83822     -8.23523 
    0.009303     -8.03244     -8.03535     -7.84305     -8.23523 
    0.010062     -8.28607     -8.28985     -8.08160     -8.23523 
    0.010851     -8.22012     -8.22438     -7.99934     -8.23523 
    0.011669     -8.29113     -8.29568     -8.05422     -8.23523 
    0.012518     -8.44489     -8.45026     -8.19095     -8.23523 
    0.013396     -8.50654     -8.51360     -8.23625     -8.23523 
    0.014304     -8.55484     -8.56288     -8.26690     -8.23523 
    0.015242     -8.65170     -8.66115     -8.34595     -8.23523 
    0.016209     -8.75071     -8.76288     -8.42767     -8.23523 
    0.017206     -8.70696     -8.72009     -8.36361     -8.23523 
    0.018233     -8.73626     -8.75022     -8.37309     -8.23523 
    0.019290     -8.87819     -8.89802     -8.49899     -8.23523 
    0.020377     -9.01099     -9.03850     -8.61690     -8.23523 
    0.021493     -9.08963     -9.11990     -8.67496     -8.23523 
    0.022639     -8.99721     -9.05512     -8.58650     -8.23523 
    0.023815     -9.01270     -9.06257     -8.57000     -8.23523 
    0.025021     -9.02846     -9.07696     -8.55914     -8.23523 
    0.026256     -9.06002     -9.11567     -8.57240     -8.23523 
    0.027521     -9.10578     -9.15886     -8.58924     -8.23523 
    0.028816     -9.03940     -9.09006     -8.49364     -8.23523 
    0.030141     -9.06117     -9.11683     -8.49319     -8.23523 
    0.031495     -9.04670     -9.10206     -8.45017     -8.23523 
    0.032880     -9.03402     -9.08557     -8.40549     -8.23523 
    0.034294     -8.96537     -9.01424     -8.30490     -8.23523 
    0.035737     -8.89913     -8.94344     -8.20411     -8.23523 
    0.037211     -8.86446     -8.90689     -8.13676     -8.23523 
    0.038714     -8.84131     -8.88409     -8.08304     -8.23523 
    0.040247     -8.87010     -8.91427     -8.08167     -8.23523 
    0.041810     -8.89123     -8.93970     -8.07460     -8.23523 
    0.043403     -8.87129     -8.92378     -8.02557     -8.23523 
    0.045025     -8.85559     -8.90984     -7.97852     -8.23523 
    0.046677     -8.87649     -8.93257     -7.96732     -8.23523 
    0.048359     -8.87138     -8.93112     -7.93080     -8.23523 
    0.050071     -8.90965     -8.97270     -7.93696     -8.23523 
    0.051812     -8.93734     -9.00749     -7.93605     -8.23523 
    0.053584     -8.99775     -9.07910     -7.97095     -8.23523 
    0.055385     -9.05776     -9.14739     -8.00184     -8.23523 
    0.057215     -9.05652     -9.15582     -7.97215     -8.23523 
    0.059076     -9.07335     -9.19456     -7.97296     -8.23523 
    0.060966     -9.11499     -9.25810     -7.99777     -8.23523 
    0.062886     -9.16712     -9.33261     -8.03218     -8.23523 
    0.064836     -9.17962     -9.37290     -8.03183     -8.23523 
    0.066816     -9.20919     -9.41378     -8.03174     -8.23523 
    0.068825     -9.21893     -9.44813     -8.02462     -8.23523 
    0.070864     -9.21843     -9.46175     -7.99596     -8.23523 
    0.072933     -9.22707     -9.47818     -7.96957     -8.23523 
    0.075032     -9.26138     -9.53463     -7.98296     -8.23523 
    0.077160     -9.27415     -9.58579     -7.99014     -8.23523 
    0.079319     -9.29177     -9.66497     -8.02468     -8.23523 
    0.081507     -9.30303     -9.73242     -8.04665     -8.23523 
    0.083724     -9.31479     -9.78223     -8.05059     -8.23523 
    0.085972     -9.33010     -9.86449     -8.08646     -8.23523 
    0.088249     -9.33175     -9.96057     -8.13516     -8.23523 
    0.090556     -9.33709     -9.97600     -8.10322     -8.23523 
    0.092893     -9.33613    -10.07976     -8.15886     -8.23523 
    0.095260     -9.34910    -10.21566     -8.24596     -8.23523 
    0.097656     -9.35058    -10.24489     -8.22551     -8.23523 
    0.100082     -9.35792    -10.19812     -8.12840     -8.23523 
    0.102538     -9.35260    -10.31910     -8.19840     -8.23523 
    0.105024     -9.35276    -10.66668     -8.49483     -8.23523 
    0.107539     -9.36603    -11.08842     -8.86449     -8.23523 
    0.110085     -9.35117    -10.71363     -8.43680     -8.23523 
    0.112660     -9.35021    -10.80073     -8.47066     -8.23523 
    0.115264     -9.34414    -12.01961     -9.63598     -8.23523 
    0.117899     -9.33139    -99.00000    -99.00000     -8.23523 
    0.120563     -9.33350    -99.00000    -99.00000     -8.23523 
    0.123257     -9.33214    -99.00000    -99.00000     -8.23523 
    0.125981     -9.33484    -99.00000    -99.00000     -8.23523 
    0.128735     -9.31875    -99.00000    -99.00000     -8.23523 
    0.131518     -9.32698    -99.00000    -99.00000     -8.23523 
    0.134331     -9.31898    -99.00000    -99.00000     -8.23523 
    0.137174     -9.58588    -99.00000    -99.00000     -8.23523 
 
