# RELION postprocess; version 5.0-beta-2-commit-a0b145
# --mask mask_fsc.mrc --i Reconstruct/job035/half1.mrc --o PostProcess/job036/postprocess --angpix -1 --pipeline_control PostProcess/job036/ 

# version 50001

data_general

_rlnFinalResolution                               3.600000
_rlnBfactorUsedForSharpening                      0.000000
_rlnUnfilteredMapHalf1                        Reconstruct/job035/half1.mrc
_rlnUnfilteredMapHalf2                        Reconstruct/job035/half2.mrc
_rlnPostprocessedMap                          PostProcess/job036/postprocess.mrc
_rlnParticleBoxFractionSolventMask               10.682012
_rlnMaskName                                  mask_fsc.mrc
_rlnRandomiseFrom                                 7.200000
_rlnPostprocessedMapMasked                    PostProcess/job036/postprocess_masked.mrc
 

# version 50001

data_fsc

loop_ 
_rlnSpectralIndex #1 
_rlnResolution #2 
_rlnAngstromResolution #3 
_rlnFourierShellCorrelationCorrected #4 
_rlnFourierShellCorrelationParticleMaskFraction #5 
_rlnFourierShellCorrelationUnmaskedMaps #6 
_rlnFourierShellCorrelationMaskedMaps #7 
_rlnCorrectedFourierShellCorrelationPhaseRandomizedMaskedMaps #8 
           0     0.001001   999.000000     1.000000     1.000000     1.000000     1.000000     1.000000 
           1     0.003858   259.200012     0.998767     0.999950     0.999464     0.998767     0.998669 
           2     0.007716   129.600006     0.997633     0.999862     0.998528     0.997633     0.997456 
           3     0.011574    86.400004     0.999348     0.999991     0.999901     0.999348     0.999367 
           4     0.015432    64.800003     0.999816     0.999987     0.999860     0.999816     0.999829 
           5     0.019290    51.840002     0.999851     0.999971     0.999690     0.999851     0.999847 
           6     0.023148    43.200002     0.999805     0.999951     0.999472     0.999805     0.999811 
           7     0.027006    37.028573     0.999591     0.999904     0.998976     0.999591     0.999608 
           8     0.030864    32.400002     0.999116     0.999888     0.998808     0.999116     0.999191 
           9     0.034722    28.800001     0.998820     0.999811     0.997986     0.998820     0.998940 
          10     0.038580    25.920001     0.998351     0.999746     0.997293     0.998351     0.998243 
          11     0.042438    23.563637     0.998047     0.999602     0.995766     0.998047     0.997908 
          12     0.046296    21.600001     0.997776     0.999283     0.992395     0.997776     0.997673 
          13     0.050154    19.938462     0.996559     0.998690     0.986181     0.996559     0.996288 
          14     0.054012    18.514287     0.994446     0.999167     0.991168     0.994446     0.994445 
          15     0.057870    17.280001     0.994204     0.998651     0.985774     0.994204     0.994167 
          16     0.061728    16.200001     0.992610     0.998112     0.980193     0.992610     0.992460 
          17     0.065586    15.247060     0.992517     0.998549     0.984716     0.992517     0.992495 
          18     0.069444    14.400001     0.993186     0.998864     0.988002     0.993186     0.993443 
          19     0.073302    13.642106     0.992679     0.998543     0.984650     0.992679     0.992902 
          20     0.077160    12.960001     0.991696     0.998018     0.979231     0.991696     0.991517 
          21     0.081019    12.342858     0.991246     0.997802     0.977008     0.991246     0.990875 
          22     0.084877    11.781819     0.991163     0.997540     0.974330     0.991163     0.990988 
          23     0.088735    11.269566     0.992124     0.997778     0.976766     0.992124     0.992298 
          24     0.092593    10.800001     0.992451     0.998259     0.981711     0.992451     0.992624 
          25     0.096451    10.368000     0.990254     0.998076     0.979819     0.990254     0.990300 
          26     0.100309     9.969231     0.985767     0.995348     0.952449     0.985767     0.985587 
          27     0.104167     9.600000     0.983310     0.996636     0.965196     0.983310     0.982832 
          28     0.108025     9.257143     0.982881     0.996207     0.960915     0.982881     0.982216 
          29     0.111883     8.937931     0.979268     0.993576     0.935392     0.979268     0.978170 
          30     0.115741     8.640000     0.970631     0.989791     0.900759     0.970631     0.968975 
          31     0.119599     8.361291     0.965591     0.990035     0.902919     0.965591     0.965711 
          32     0.123457     8.100000     0.960242     0.989552     0.898644     0.960242     0.960609 
          33     0.127315     7.854546     0.949812     0.982540     0.840463     0.949812     0.949596 
          34     0.131173     7.623530     0.943964     0.983245     0.846004     0.943964     0.940808 
          35     0.135031     7.405715     0.938150     0.983713     0.849723     0.938150     0.922228 
          36     0.138889     7.200000     0.916881     0.974688     0.782839     0.916881     0.840496 
          37     0.142747     7.005406     0.887800     0.954061     0.660351     0.887800     0.625223 
          38     0.146605     6.821053     0.762238     0.946453     0.623305     0.863924     0.427680 
          39     0.150463     6.646154     0.782676     0.956300     0.671982     0.849445     0.307233 
          40     0.154321     6.480000     0.791046     0.943839     0.611393     0.845436     0.260297 
          41     0.158179     6.321952     0.779780     0.943264     0.608825     0.827290     0.215737 
          42     0.162037     6.171429     0.764805     0.932810     0.565156     0.806108     0.175613 
          43     0.165895     6.027907     0.773215     0.920301     0.519461     0.806227     0.145566 
          44     0.169753     5.890909     0.770419     0.927273     0.544128     0.795003     0.107082 
          45     0.173611     5.760000     0.742985     0.910287     0.487147     0.775027     0.124669 
          46     0.177469     5.634783     0.756920     0.913909     0.498443     0.776845     0.081971 
          47     0.181327     5.514894     0.753978     0.908777     0.482565     0.766637     0.051456 
          48     0.185185     5.400000     0.748840     0.911746     0.491645     0.759089     0.040809 
          49     0.189043     5.289796     0.770054     0.920918     0.521568     0.775907     0.025455 
          50     0.192901     5.184000     0.779205     0.920355     0.519644     0.784728     0.025018 
          51     0.196759     5.082353     0.778554     0.926346     0.540736     0.783941     0.024329 
          52     0.200617     4.984616     0.765476     0.911634     0.491298     0.772628     0.030497 
          53     0.204475     4.890566     0.737008     0.892813     0.438129     0.745711     0.033094 
          54     0.208333     4.800000     0.698949     0.891776     0.435475     0.708120     0.030466 
          55     0.212191     4.712727     0.684257     0.889238     0.429086     0.691327     0.022392 
          56     0.216049     4.628572     0.675848     0.860106     0.365311     0.685126     0.028621 
          57     0.219907     4.547369     0.651631     0.867452     0.379907     0.666335     0.042209 
          58     0.223765     4.468966     0.628115     0.833154     0.318556     0.646057     0.048248 
          59     0.227623     4.393221     0.581440     0.807769     0.282320     0.597580     0.038560 
          60     0.231481     4.320000     0.534488     0.781004     0.250296     0.544039     0.020517 
          61     0.235339     4.249181     0.513412     0.714903     0.190118     0.514856     0.002967 
          62     0.239198     4.180645     0.493935     0.722298     0.195813     0.492450     -0.00293 
          63     0.243056     4.114286     0.456748     0.709032     0.185749     0.459355     0.004798 
          64     0.246914     4.050000     0.419714     0.631166     0.138079     0.417664     -0.00353 
          65     0.250772     3.987692     0.378644     0.465883     0.075491     0.370172     -0.01363 
          66     0.254630     3.927273     0.320055     0.460268     0.073930     0.319692 -5.33300e-04 
          67     0.258488     3.868657     0.285777     0.534103     0.096919     0.292618     0.009578 
          68     0.262346     3.811765     0.257651     0.474505     0.077943     0.263199     0.007473 
          69     0.266204     3.756522     0.251672     0.338354     0.045686     0.253199     0.002040 
          70     0.270062     3.702857     0.239936     0.445073     0.069839     0.241090     0.001518 
          71     0.273920     3.650704     0.211019     0.406856     0.060339     0.207526     -0.00443 
          72     0.277778     3.600000     0.174490     0.359882     0.050000     0.162533     -0.01448 
          73     0.281636     3.550685     0.116128     0.247955     0.029942     0.107559     -0.00969 
          74     0.285494     3.502703     0.067456     0.028900     0.002778     0.065296     -0.00232 
          75     0.289352     3.456000     0.044005     0.206490     0.023782     0.043905 -1.04627e-04 
          76     0.293210     3.410526     0.055889     0.164458     0.018093     0.043964     -0.01263 
          77     0.297068     3.366234     0.072849     0.047174     0.004614     0.056974     -0.01712 
          78     0.300926     3.323077     0.083000     -0.09329     -0.00805     0.072027     -0.01197 
          79     0.304784     3.281013     0.076082     0.096279     0.009875     0.069365     -0.00727 
          80     0.308642     3.240000     0.045634     0.143336     0.015422     0.040506     -0.00537 
          81     0.312500     3.200000     0.019040     0.005732 5.394195e-04     0.013958     -0.00518 
          82     0.316358     3.160976     0.025038     0.093168     0.009526     0.024594 -4.54850e-04 
          83     0.320216     3.122892     0.028967     0.147061     0.015884     0.030444     0.001521 
          84     0.324074     3.085714     -0.00204     0.084491     0.008566     -0.00273 -6.87402e-04 
          85     0.327932     3.049412     -0.04249     -0.03905     -0.00353     -0.04046     0.001946 
          86     0.331790     3.013954     -0.05360     -0.11597     -0.00982     -0.05099     0.002475 
          87     0.335648     2.979310     -0.04336     -0.00710 -6.60140e-04     -0.03793     0.005201 
          88     0.339506     2.945455     -0.00756     -0.06766     -0.00597     -0.00826 -6.97008e-04 
          89     0.343364     2.912360     0.009774     -0.01161     -0.00108     0.012994     0.003252 
          90     0.347222     2.880000     -0.00560     0.058657     0.005800     0.007863     0.013388 
          91     0.351080     2.848352     -0.01912     0.003371 3.165843e-04     -0.00431     0.014537 
          92     0.354938     2.817391     -0.00141     0.076620     0.007708     -0.00161 -1.98821e-04 
          93     0.358796     2.787097     0.018261     -0.11697     -0.00990     0.011384     -0.00701 
          94     0.362654     2.757447     0.014430     0.020640     0.001969     0.019755     0.005402 
          95     0.366512     2.728421     0.020441     0.137598     0.014717     0.025767     0.005437 
          96     0.370370     2.700000     0.033058     0.044447     0.004336     0.032608 -4.65825e-04 
 

# version 50001

data_guinier

loop_ 
_rlnResolutionSquared #1 
_rlnLogAmplitudesOriginal #2 
_rlnLogAmplitudesWeighted #3 
    0.000000    -27.89611    -27.89611 
1.488435e-05     -4.71766     -4.71797 
5.953741e-05     -5.81820     -5.81879 
1.339592e-04     -5.93612     -5.93629 
2.381496e-04     -5.88819     -5.88824 
3.721088e-04     -6.30028     -6.30032 
5.358367e-04     -6.74120     -6.74125 
7.293333e-04     -7.04350     -7.04361 
9.525986e-04     -7.14924     -7.14946 
    0.001206     -7.36594     -7.36623 
    0.001488     -7.39765     -7.39807 
    0.001801     -7.62012     -7.62061 
    0.002143     -7.92648     -7.92703 
    0.002515     -8.08835     -8.08921 
    0.002917     -7.88692     -7.88832 
    0.003349     -7.95624     -7.95770 
    0.003810     -8.01394     -8.01580 
    0.004302     -8.08740     -8.08928 
    0.004823     -8.01216     -8.01387 
    0.005373     -7.98041     -7.98225 
    0.005954     -7.91848     -7.92057 
    0.006564     -7.96497     -7.96718 
    0.007204     -8.04932     -8.05155 
    0.007874     -8.00051     -8.00249 
    0.008573     -7.85894     -7.86084 
    0.009303     -7.87331     -7.87576 
    0.010062     -8.16337     -8.16696 
    0.010851     -8.07178     -8.07600 
    0.011669     -8.13407     -8.13841 
    0.012518     -8.30564     -8.31091 
    0.013396     -8.38537     -8.39288 
    0.014304     -8.42987     -8.43870 
    0.015242     -8.50669     -8.51694 
    0.016209     -8.62495     -8.63799 
    0.017206     -8.59401     -8.60863 
    0.018233     -8.59813     -8.61434 
    0.019290     -8.75723     -8.77940 
    0.020377     -8.91227     -8.94290 
    0.021493     -8.97253     -9.04499 
    0.022639     -8.89722     -8.96222 
    0.023815     -8.94541     -9.00743 
    0.025021     -8.93557     -9.00161 
    0.026256     -8.97546     -9.04697 
    0.027521     -9.03566     -9.10408 
    0.028816     -8.97461     -9.04406 
    0.030141     -9.00838     -9.08814 
    0.031495     -8.98079     -9.05525 
    0.032880     -8.98577     -9.06134 
    0.034294     -8.93572     -9.01324 
    0.035737     -8.88007     -8.94965 
    0.037211     -8.85757     -8.92382 
    0.038714     -8.80868     -8.87517 
    0.040247     -8.86302     -8.93429 
    0.041810     -8.89828     -8.98037 
    0.043403     -8.87675     -8.97427 
    0.045025     -8.85852     -8.96232 
    0.046677     -8.90567     -9.01315 
    0.048359     -8.89799     -9.01644 
    0.050071     -8.94901     -9.07866 
    0.051812     -8.99359     -9.14730 
    0.053584     -9.04162     -9.22237 
    0.055385     -9.09424     -9.28819 
    0.057215     -9.08917     -9.29598 
    0.059076     -9.08490     -9.31824 
    0.060966     -9.09868     -9.36142 
    0.062886     -9.17361     -9.47316 
    0.064836     -9.18304     -9.54494 
    0.066816     -9.16092     -9.56630 
    0.068825     -9.18542     -9.63154 
    0.070864     -9.18133     -9.63682 
    0.072933     -9.16873     -9.64338 
    0.075032     -9.16433     -9.69139 
    0.077160     -9.18216     -9.78895 
    0.079319     -9.19789     -9.98278 
    0.081507     -9.21707    -10.25127 
    0.083724     -9.21199    -10.44868 
    0.085972     -9.20118    -10.32399 
    0.088249     -9.21749    -10.21576 
    0.090556     -9.21449    -10.15224 
    0.092893     -9.19901    -10.17707 
    0.095260     -9.19863    -10.41792 
    0.097656     -9.20191    -10.84537 
    0.100082     -9.20007    -10.70955 
    0.102538     -9.18194    -10.62044 
    0.105024     -9.18036    -99.00000 
    0.107539     -9.18058    -99.00000 
    0.110085     -9.17962    -99.00000 
    0.112660     -9.17493    -99.00000 
    0.115264     -9.16340    -99.00000 
    0.117899     -9.15951    -99.00000 
    0.120563     -9.15627    -99.00000 
    0.123257     -9.14657    -99.00000 
    0.125981     -9.13690    -99.00000 
    0.128735     -9.14263    -99.00000 
    0.131518     -9.13394    -99.00000 
    0.134331     -9.13672    -99.00000 
    0.137174     -9.40972    -99.00000 
 
