
# version 50001

data_TS_01

loop_ 
_rlnMicrographMovieName #1 
_rlnTomoTiltMovieFrameCount #2 
_rlnTomoNominalStageTiltAngle #3 
_rlnTomoNominalTiltAxisAngle #4 
_rlnMicrographPreExposure #5 
_rlnTomoNominalDefocus #6 
_rlnCtfPowerSpectrum #7 
_rlnMicrographNameEven #8 
_rlnMicrographNameOdd #9 
_rlnMicrographName #10 
_rlnMicrographMetadata #11 
_rlnAccumMotionTotal #12 
_rlnAccumMotionEarly #13 
_rlnAccumMotionLate #14 
_rlnCtfImage #15 
_rlnDefocusU #16 
_rlnDefocusV #17 
_rlnCtfAstigmatism #18 
_rlnDefocusAngle #19 
_rlnCtfFigureOfMerit #20 
_rlnCtfMaxResolution #21 
_rlnCtfIceRingDensity #22 
_rlnTomoXTilt #23 
_rlnTomoYTilt #24 
_rlnTomoZRot #25 
_rlnTomoXShiftAngst #26 
_rlnTomoYShiftAngst #27 
_rlnCtfScalefactor #28 
frames/TS_01_038_-57.0.mrc            8    -56.99850    85.000000   114.000000     -4.00000 MotionCorr/job002/frames/TS_01_038_-57_0_PS.mrc MotionCorr/job002/frames/TS_01_038_-57_0_EVN.mrc MotionCorr/job002/frames/TS_01_038_-57_0_ODD.mrc MotionCorr/job002/frames/TS_01_038_-57_0.mrc MotionCorr/job002/frames/TS_01_038_-57_0.star     6.867403     0.000000     6.867403 CtfFind/job003/frames/TS_01_038_-57_0_PS.ctf:mrc 39545.870381 39868.058630   109.371094   119.382548     0.098171    14.626481     0.624420     -0.06771    -57.11744    85.191507    37.231056   108.346705     0.343208 
frames/TS_01_035_-54.0.mrc            8    -53.99890    85.000000   105.000000     -4.00000 MotionCorr/job002/frames/TS_01_035_-54_0_PS.mrc MotionCorr/job002/frames/TS_01_035_-54_0_EVN.mrc MotionCorr/job002/frames/TS_01_035_-54_0_ODD.mrc MotionCorr/job002/frames/TS_01_035_-54_0.mrc MotionCorr/job002/frames/TS_01_035_-54_0.star     8.737374     0.000000     8.737374 CtfFind/job003/frames/TS_01_035_-54_0_PS.ctf:mrc 38762.082338 38964.636450   140.769531   107.278392     0.089442    14.931199     0.549690     -0.15960    -54.12258    85.250279    20.465312    92.250739     0.393286 
frames/TS_01_034_-51.0.mrc            8    -50.99880    85.000000   102.000000     -4.00000 MotionCorr/job002/frames/TS_01_034_-51_0_PS.mrc MotionCorr/job002/frames/TS_01_034_-51_0_EVN.mrc MotionCorr/job002/frames/TS_01_034_-51_0_ODD.mrc MotionCorr/job002/frames/TS_01_034_-51_0.mrc MotionCorr/job002/frames/TS_01_034_-51_0.star     9.400595     0.000000     9.400595 CtfFind/job003/frames/TS_01_034_-51_0_PS.ctf:mrc 39784.378500 40076.479768    40.027344   122.005075     0.126386    12.573642     0.511440     -0.15401    -51.17066    85.265703    30.062913   116.926855     0.397910 
frames/TS_01_031_-48.0.mrc            8    -47.99860    85.000000    93.000000     -4.00000 MotionCorr/job002/frames/TS_01_031_-48_0_PS.mrc MotionCorr/job002/frames/TS_01_031_-48_0_EVN.mrc MotionCorr/job002/frames/TS_01_031_-48_0_ODD.mrc MotionCorr/job002/frames/TS_01_031_-48_0.mrc MotionCorr/job002/frames/TS_01_031_-48_0.star     8.097709     0.000000     8.097709 CtfFind/job003/frames/TS_01_031_-48_0_PS.ctf:mrc 40191.199050 40792.751675   254.808594   118.664683     0.095329    11.559638     0.848440     -0.17413    -48.11333    85.260244    20.802301    95.957856     0.482232 
frames/TS_01_030_-45.0.mrc            8    -44.99900    85.000000    90.000000     -4.00000 MotionCorr/job002/frames/TS_01_030_-45_0_PS.mrc MotionCorr/job002/frames/TS_01_030_-45_0_EVN.mrc MotionCorr/job002/frames/TS_01_030_-45_0_ODD.mrc MotionCorr/job002/frames/TS_01_030_-45_0.mrc MotionCorr/job002/frames/TS_01_030_-45_0.star     7.706032     0.000000     7.706032 CtfFind/job003/frames/TS_01_030_-45_0_PS.ctf:mrc 39603.764888 39943.621382   242.738281    70.757423     0.064779    11.198400     0.478040     -0.11178    -45.16038    85.226214    27.195812   116.970667     0.481112 
frames/TS_01_027_-42.0.mrc            8    -41.99890    85.000000    81.000000     -4.00000 MotionCorr/job002/frames/TS_01_027_-42_0_PS.mrc MotionCorr/job002/frames/TS_01_027_-42_0_EVN.mrc MotionCorr/job002/frames/TS_01_027_-42_0_ODD.mrc MotionCorr/job002/frames/TS_01_027_-42_0.mrc MotionCorr/job002/frames/TS_01_027_-42_0.star     7.616364     0.000000     7.616364 CtfFind/job003/frames/TS_01_027_-42_0_PS.ctf:mrc 39591.383717 39882.848759   129.660156   102.410033     0.060071    11.198400     0.681970     -0.08263    -42.11270    85.235924    16.302563    92.726855     0.504385 
frames/TS_01_026_-39.0.mrc            8    -38.99870    85.000000    78.000000     -4.00000 MotionCorr/job002/frames/TS_01_026_-39_0_PS.mrc MotionCorr/job002/frames/TS_01_026_-39_0_EVN.mrc MotionCorr/job002/frames/TS_01_026_-39_0_ODD.mrc MotionCorr/job002/frames/TS_01_026_-39_0.mrc MotionCorr/job002/frames/TS_01_026_-39_0.star     6.881871     0.000000     6.881871 CtfFind/job003/frames/TS_01_026_-39_0_PS.ctf:mrc 39146.643723 39898.591492   408.003906   129.874067     0.058877     9.685102     0.421770     -0.07593    -39.12027    85.221422    21.503317   114.433600     0.526517 
frames/TS_01_023_-36.0.mrc            8    -35.99860    85.000000    69.000000     -4.00000 MotionCorr/job002/frames/TS_01_023_-36_0_PS.mrc MotionCorr/job002/frames/TS_01_023_-36_0_EVN.mrc MotionCorr/job002/frames/TS_01_023_-36_0_ODD.mrc MotionCorr/job002/frames/TS_01_023_-36_0.mrc MotionCorr/job002/frames/TS_01_023_-36_0.star     6.251948     0.000000     6.251948 CtfFind/job003/frames/TS_01_023_-36_0_PS.ctf:mrc 39313.772275 39957.319837   390.214844    98.820050     0.068964    10.094332     0.587930     -0.10082    -36.09888    85.220470    12.894049    87.927106     0.654376 
frames/TS_01_022_-33.0.mrc            8    -32.99900    85.000000    66.000000     -4.00000 MotionCorr/job002/frames/TS_01_022_-33_0_PS.mrc MotionCorr/job002/frames/TS_01_022_-33_0_EVN.mrc MotionCorr/job002/frames/TS_01_022_-33_0_ODD.mrc MotionCorr/job002/frames/TS_01_022_-33_0.mrc MotionCorr/job002/frames/TS_01_022_-33_0.star     5.508498     0.000000     5.508498 CtfFind/job003/frames/TS_01_022_-33_0_PS.ctf:mrc 39370.920871 39735.539205   131.757812    89.203770     0.068570     9.072121     1.470770     -0.11801    -33.07671    85.227381    17.162585   109.600774     0.723977 
frames/TS_01_019_-30.0.mrc            8    -29.99880    85.000000    57.000000     -4.00000 MotionCorr/job002/frames/TS_01_019_-30_0_PS.mrc MotionCorr/job002/frames/TS_01_019_-30_0_EVN.mrc MotionCorr/job002/frames/TS_01_019_-30_0_ODD.mrc MotionCorr/job002/frames/TS_01_019_-30_0.mrc MotionCorr/job002/frames/TS_01_019_-30_0.star     5.991338     0.000000     5.991338 CtfFind/job003/frames/TS_01_019_-30_0_PS.ctf:mrc 39124.494311 39788.926444   401.738281   114.718869     0.061857     9.188430     0.461620     -0.13952    -30.08168    85.225941     6.815006    80.914214     0.764680 
frames/TS_01_018_-27.0.mrc            8    -26.99920    85.000000    54.000000     -4.00000 MotionCorr/job002/frames/TS_01_018_-27_0_PS.mrc MotionCorr/job002/frames/TS_01_018_-27_0_EVN.mrc MotionCorr/job002/frames/TS_01_018_-27_0_ODD.mrc MotionCorr/job002/frames/TS_01_018_-27_0.mrc MotionCorr/job002/frames/TS_01_018_-27_0.star     3.764705     0.000000     3.764705 CtfFind/job003/frames/TS_01_018_-27_0_PS.ctf:mrc 39262.001807 39810.643572   461.804688   140.631572     0.043537     7.875797     0.967460     -0.12174    -27.05788    85.233096     9.431475   102.462307     0.792694 
frames/TS_01_015_-24.0.mrc            8    -23.99860    85.000000    45.000000     -4.00000 MotionCorr/job002/frames/TS_01_015_-24_0_PS.mrc MotionCorr/job002/frames/TS_01_015_-24_0_EVN.mrc MotionCorr/job002/frames/TS_01_015_-24_0_ODD.mrc MotionCorr/job002/frames/TS_01_015_-24_0.mrc MotionCorr/job002/frames/TS_01_015_-24_0.star     4.374630     0.000000     4.374630 CtfFind/job003/frames/TS_01_015_-24_0_PS.ctf:mrc 39316.829417 39974.570080   826.437500   136.126900     0.031468     9.072121     0.625670     -0.11512    -24.04271    85.222411     1.873915    72.633878     0.860642 
frames/TS_01_014_-21.0.mrc            8    -20.99890    85.000000    42.000000     -4.00000 MotionCorr/job002/frames/TS_01_014_-21_0_PS.mrc MotionCorr/job002/frames/TS_01_014_-21_0_EVN.mrc MotionCorr/job002/frames/TS_01_014_-21_0_ODD.mrc MotionCorr/job002/frames/TS_01_014_-21_0.mrc MotionCorr/job002/frames/TS_01_014_-21_0.star     3.208567     0.000000     3.208567 CtfFind/job003/frames/TS_01_014_-21_0_PS.ctf:mrc 39221.807444 39964.361789   438.785156   135.498117     0.059953     6.575207     0.532320     -0.07210    -21.03420    85.219669     8.823908   100.100059     0.894821 
frames/TS_01_011_-18.0.mrc            8    -17.99880    85.000000    33.000000     -4.00000 MotionCorr/job002/frames/TS_01_011_-18_0_PS.mrc MotionCorr/job002/frames/TS_01_011_-18_0_EVN.mrc MotionCorr/job002/frames/TS_01_011_-18_0_ODD.mrc MotionCorr/job002/frames/TS_01_011_-18_0.mrc MotionCorr/job002/frames/TS_01_011_-18_0.star     2.927541     0.000000     2.927541 CtfFind/job003/frames/TS_01_011_-18_0_PS.ctf:mrc 39262.867592 39993.062502   570.011719   140.589487     0.051604     8.052782     0.600150     -0.07053    -18.03875    85.218522     3.793391    70.145037     1.007427 
frames/TS_01_010_-15.0.mrc            8    -14.99870    85.000000    30.000000     -4.00000 MotionCorr/job002/frames/TS_01_010_-15_0_PS.mrc MotionCorr/job002/frames/TS_01_010_-15_0_EVN.mrc MotionCorr/job002/frames/TS_01_010_-15_0_ODD.mrc MotionCorr/job002/frames/TS_01_010_-15_0.mrc MotionCorr/job002/frames/TS_01_010_-15_0.star     3.144113     0.000000     3.144113 CtfFind/job003/frames/TS_01_010_-15_0_PS.ctf:mrc 39329.908720 39817.690224    58.691406   130.414798     0.057074     6.891323     1.495470     -0.07746    -15.02777    85.225021     7.446122    76.261134     0.991079 
frames/TS_01_007_-12.0.mrc            8    -11.99850    85.000000    21.000000     -4.00000 MotionCorr/job002/frames/TS_01_007_-12_0_PS.mrc MotionCorr/job002/frames/TS_01_007_-12_0_EVN.mrc MotionCorr/job002/frames/TS_01_007_-12_0_ODD.mrc MotionCorr/job002/frames/TS_01_007_-12_0.mrc MotionCorr/job002/frames/TS_01_007_-12_0.star     2.299021     0.000000     2.299021 CtfFind/job003/frames/TS_01_007_-12_0_PS.ctf:mrc 39347.368798 39771.733208   320.023438   137.287660     0.039666     7.544185     1.236110     -0.04572    -12.02253    85.224828     3.875721    71.211964     1.055976 
frames/TS_01_006_-9.0.mrc            8     -8.99890    85.000000    18.000000     -4.00000 MotionCorr/job002/frames/TS_01_006_-9_0_PS.mrc MotionCorr/job002/frames/TS_01_006_-9_0_EVN.mrc MotionCorr/job002/frames/TS_01_006_-9_0_ODD.mrc MotionCorr/job002/frames/TS_01_006_-9_0.mrc MotionCorr/job002/frames/TS_01_006_-9_0.star     2.231222     0.000000     2.231222 CtfFind/job003/frames/TS_01_006_-9_0_PS.ctf:mrc 39147.275148 39828.151135   974.921875   146.905458     0.041542     7.544185     1.137880     -0.04200     -9.00953    85.231445     6.418709    45.630072     1.098716 
frames/TS_01_003_-6.0.mrc            8     -5.99876    85.000000     9.000000     -4.00000 MotionCorr/job002/frames/TS_01_003_-6_0_PS.mrc MotionCorr/job002/frames/TS_01_003_-6_0_EVN.mrc MotionCorr/job002/frames/TS_01_003_-6_0_ODD.mrc MotionCorr/job002/frames/TS_01_003_-6_0.mrc MotionCorr/job002/frames/TS_01_003_-6_0.star     3.237798     0.000000     3.237798 CtfFind/job003/frames/TS_01_003_-6_0_PS.ctf:mrc 39063.814801 39862.019582   337.300781   141.467064     0.045582     7.096016     0.480650     -0.04334     -5.98534    85.239966     4.431353    47.030152     1.075820 
frames/TS_01_002_-3.0.mrc            8     -2.99863    85.000000     6.000000     -4.00000 MotionCorr/job002/frames/TS_01_002_-3_0_PS.mrc MotionCorr/job002/frames/TS_01_002_-3_0_EVN.mrc MotionCorr/job002/frames/TS_01_002_-3_0_ODD.mrc MotionCorr/job002/frames/TS_01_002_-3_0.mrc MotionCorr/job002/frames/TS_01_002_-3_0.star     2.008728     0.000000     2.008728 CtfFind/job003/frames/TS_01_002_-3_0_PS.ctf:mrc 38943.382288 39412.207013   250.898438   123.264062     0.043894     6.232153     1.195820     -0.03512     -2.96972    85.247185     -1.04071    15.588403     1.073042 
frames/TS_01_000_0.0.mrc            8     0.001000    85.000000     0.000000     -4.00000 MotionCorr/job002/frames/TS_01_000_0_0_PS.mrc MotionCorr/job002/frames/TS_01_000_0_0_EVN.mrc MotionCorr/job002/frames/TS_01_000_0_0_ODD.mrc MotionCorr/job002/frames/TS_01_000_0_0.mrc MotionCorr/job002/frames/TS_01_000_0_0.star     2.297631     1.007983     1.289649 CtfFind/job003/frames/TS_01_000_0_0_PS.ctf:mrc 38909.244540 39071.619251   105.000000   147.769569     0.035810     7.026447     0.605850     -0.01998     0.031264    85.255785     1.359535     -9.51791     1.063128 
frames/TS_01_001_3.0.mrc            8     3.001130    85.000000     3.000000     -4.00000 MotionCorr/job002/frames/TS_01_001_3_0_PS.mrc MotionCorr/job002/frames/TS_01_001_3_0_EVN.mrc MotionCorr/job002/frames/TS_01_001_3_0_ODD.mrc MotionCorr/job002/frames/TS_01_001_3_0.mrc MotionCorr/job002/frames/TS_01_001_3_0.star     2.384960     0.000000     2.384960 CtfFind/job003/frames/TS_01_001_3_0_PS.ctf:mrc 39257.206338 39427.662864    40.277344   133.463155     0.045554     6.575207     0.570030 7.471336e-04     3.043033    85.264082     -3.78697    -42.67623     1.116077 
frames/TS_01_004_6.0.mrc            8     6.001260    85.000000    12.000000     -4.00000 MotionCorr/job002/frames/TS_01_004_6_0_PS.mrc MotionCorr/job002/frames/TS_01_004_6_0_EVN.mrc MotionCorr/job002/frames/TS_01_004_6_0_ODD.mrc MotionCorr/job002/frames/TS_01_004_6_0.mrc MotionCorr/job002/frames/TS_01_004_6_0.star     2.323928     0.000000     2.323928 CtfFind/job003/frames/TS_01_004_6_0_PS.ctf:mrc 39171.832650 39533.236884   211.851562   138.822886     0.050940     6.958229     0.600390     -0.00677     6.074559    85.264314     -7.52388    -66.06207     1.158043 
frames/TS_01_005_9.0.mrc            8     9.001400    85.000000    15.000000     -4.00000 MotionCorr/job002/frames/TS_01_005_9_0_PS.mrc MotionCorr/job002/frames/TS_01_005_9_0_EVN.mrc MotionCorr/job002/frames/TS_01_005_9_0_ODD.mrc MotionCorr/job002/frames/TS_01_005_9_0.mrc MotionCorr/job002/frames/TS_01_005_9_0.star     2.180758     0.000000     2.180758 CtfFind/job003/frames/TS_01_005_9_0_PS.ctf:mrc 39081.787425 39629.033058   895.097656   137.304053     0.047935     6.232153     0.796060     0.008682     9.070570    85.275616     -8.32516    -59.26972     1.152139 
frames/TS_01_008_12.0.mrc            8    12.000500    85.000000    24.000000     -4.00000 MotionCorr/job002/frames/TS_01_008_12_0_PS.mrc MotionCorr/job002/frames/TS_01_008_12_0_EVN.mrc MotionCorr/job002/frames/TS_01_008_12_0_ODD.mrc MotionCorr/job002/frames/TS_01_008_12_0.mrc MotionCorr/job002/frames/TS_01_008_12_0.star     2.105090     0.000000     2.105090 CtfFind/job003/frames/TS_01_008_12_0_PS.ctf:mrc 39105.840519 39626.383484   249.871094   136.777259     0.068617     6.761298     0.636830     0.016544    12.057297    85.277950     -9.64742    -86.89863     1.039167 
frames/TS_01_009_15.0.mrc            8    15.000700    85.000000    27.000000     -4.00000 MotionCorr/job002/frames/TS_01_009_15_0_PS.mrc MotionCorr/job002/frames/TS_01_009_15_0_EVN.mrc MotionCorr/job002/frames/TS_01_009_15_0_ODD.mrc MotionCorr/job002/frames/TS_01_009_15_0.mrc MotionCorr/job002/frames/TS_01_009_15_0.star     2.645439     0.000000     2.645439 CtfFind/job003/frames/TS_01_009_15_0_PS.ctf:mrc 39056.448603 39599.362487   246.207031   146.186151     0.060885     6.636089     1.134630     0.001603    15.067764    85.280593    -12.56678    -73.46389     1.053643 
frames/TS_01_012_18.0.mrc            8    18.000800    85.000000    36.000000     -4.00000 MotionCorr/job002/frames/TS_01_012_18_0_PS.mrc MotionCorr/job002/frames/TS_01_012_18_0_EVN.mrc MotionCorr/job002/frames/TS_01_012_18_0_ODD.mrc MotionCorr/job002/frames/TS_01_012_18_0.mrc MotionCorr/job002/frames/TS_01_012_18_0.star     3.365260     0.000000     3.365260 CtfFind/job003/frames/TS_01_012_18_0_PS.ctf:mrc 39173.675084 39602.085962   126.351562   142.764082     0.056260     8.144291     0.656890     0.037320    18.049714    85.301760    -16.21122   -105.10070     0.978579 
frames/TS_01_013_21.0.mrc            8    21.000900    85.000000    39.000000     -4.00000 MotionCorr/job002/frames/TS_01_013_21_0_PS.mrc MotionCorr/job002/frames/TS_01_013_21_0_EVN.mrc MotionCorr/job002/frames/TS_01_013_21_0_ODD.mrc MotionCorr/job002/frames/TS_01_013_21_0.mrc MotionCorr/job002/frames/TS_01_013_21_0.star     3.806968     0.000000     3.806968 CtfFind/job003/frames/TS_01_013_21_0_PS.ctf:mrc 39291.058605 39842.251370   205.695312   127.842390     0.045835     7.313241     0.594060     0.047261    21.038781    85.310548    -16.84890   -103.63947     0.951654 
frames/TS_01_016_24.0.mrc            8    24.000600    85.000000    48.000000     -4.00000 MotionCorr/job002/frames/TS_01_016_24_0_PS.mrc MotionCorr/job002/frames/TS_01_016_24_0_EVN.mrc MotionCorr/job002/frames/TS_01_016_24_0_ODD.mrc MotionCorr/job002/frames/TS_01_016_24_0.mrc MotionCorr/job002/frames/TS_01_016_24_0.star     3.305467     0.000000     3.305467 CtfFind/job003/frames/TS_01_016_24_0_PS.ctf:mrc 39230.998821 39749.642318   309.660156   167.212942     0.074357     8.052782     1.427420     0.043796    24.047337    85.325054    -19.35398   -123.72350     0.872314 
frames/TS_01_017_27.0.mrc            8    27.000700    85.000000    51.000000     -4.00000 MotionCorr/job002/frames/TS_01_017_27_0_PS.mrc MotionCorr/job002/frames/TS_01_017_27_0_EVN.mrc MotionCorr/job002/frames/TS_01_017_27_0_ODD.mrc MotionCorr/job002/frames/TS_01_017_27_0.mrc MotionCorr/job002/frames/TS_01_017_27_0.star     4.514617     0.000000     4.514617 CtfFind/job003/frames/TS_01_017_27_0_PS.ctf:mrc 39045.921088 39593.015251   128.867188   147.915926     0.057817     8.958720     1.250290     0.075312    27.048401    85.343345    -16.77326   -128.81279     0.831141 
frames/TS_01_020_30.0.mrc            8    30.000800    85.000000    60.000000     -4.00000 MotionCorr/job002/frames/TS_01_020_30_0_PS.mrc MotionCorr/job002/frames/TS_01_020_30_0_EVN.mrc MotionCorr/job002/frames/TS_01_020_30_0_ODD.mrc MotionCorr/job002/frames/TS_01_020_30_0.mrc MotionCorr/job002/frames/TS_01_020_30_0.star     4.122379     0.000000     4.122379 CtfFind/job003/frames/TS_01_020_30_0_PS.ctf:mrc 38783.004540 39463.004406   696.796875   117.678345     0.053755     9.430231     0.488000     0.126379    30.051315    85.376285    -27.28221   -140.34554     0.749362 
frames/TS_01_021_33.0.mrc            8    33.001000    85.000000    63.000000     -4.00000 MotionCorr/job002/frames/TS_01_021_33_0_PS.mrc MotionCorr/job002/frames/TS_01_021_33_0_EVN.mrc MotionCorr/job002/frames/TS_01_021_33_0_ODD.mrc MotionCorr/job002/frames/TS_01_021_33_0.mrc MotionCorr/job002/frames/TS_01_021_33_0.star     4.487542     0.000000     4.487542 CtfFind/job003/frames/TS_01_021_33_0_PS.ctf:mrc 39182.797375 39650.430642   152.042969   113.892706     0.081110     8.848118     0.590140     0.109102    33.042817    85.373811    -20.98362   -128.11605     0.720715 
frames/TS_01_024_36.0.mrc            8    36.000600    85.000000    72.000000     -4.00000 MotionCorr/job002/frames/TS_01_024_36_0_PS.mrc MotionCorr/job002/frames/TS_01_024_36_0_EVN.mrc MotionCorr/job002/frames/TS_01_024_36_0_ODD.mrc MotionCorr/job002/frames/TS_01_024_36_0.mrc MotionCorr/job002/frames/TS_01_024_36_0.star     4.487724     0.000000     4.487724 CtfFind/job003/frames/TS_01_024_36_0_PS.ctf:mrc 38534.189479 39303.001191   435.519531   102.906427     0.072468    10.539670     0.864610     0.138695    35.981123    85.389397    -23.75371   -151.59442     0.625697 
frames/TS_01_025_39.0.mrc            8    39.000700    85.000000    75.000000     -4.00000 MotionCorr/job002/frames/TS_01_025_39_0_PS.mrc MotionCorr/job002/frames/TS_01_025_39_0_EVN.mrc MotionCorr/job002/frames/TS_01_025_39_0_ODD.mrc MotionCorr/job002/frames/TS_01_025_39_0.mrc MotionCorr/job002/frames/TS_01_025_39_0.star     5.025156     0.000000     5.025156 CtfFind/job003/frames/TS_01_025_39_0_PS.ctf:mrc 38732.879045 39740.715219   507.058594   119.115353     0.083311     9.954133     0.650820     0.124763    38.998977    85.401706    -10.13732   -136.43672     0.591107 
frames/TS_01_028_42.0.mrc            8    42.000900    85.000000    84.000000     -4.00000 MotionCorr/job002/frames/TS_01_028_42_0_PS.mrc MotionCorr/job002/frames/TS_01_028_42_0_EVN.mrc MotionCorr/job002/frames/TS_01_028_42_0_ODD.mrc MotionCorr/job002/frames/TS_01_028_42_0.mrc MotionCorr/job002/frames/TS_01_028_42_0.star     4.218339     0.000000     4.218339 CtfFind/job003/frames/TS_01_028_42_0_PS.ctf:mrc 38747.456712 39177.620242   295.824219   113.569882     0.102306    10.386921     0.533730     0.212308    41.983684    85.462510    -27.71627   -162.23869     0.590200 
frames/TS_01_029_45.0.mrc            8    45.001000    85.000000    87.000000     -4.00000 MotionCorr/job002/frames/TS_01_029_45_0_PS.mrc MotionCorr/job002/frames/TS_01_029_45_0_EVN.mrc MotionCorr/job002/frames/TS_01_029_45_0_ODD.mrc MotionCorr/job002/frames/TS_01_029_45_0.mrc MotionCorr/job002/frames/TS_01_029_45_0.star     5.827766     0.000000     5.827766 CtfFind/job003/frames/TS_01_029_45_0_PS.ctf:mrc 38593.350425 38964.905556   193.757812   139.731890     0.083501    10.238537     0.576610     0.174526    44.981867    85.446745    -12.11323   -143.98381     0.535778 
frames/TS_01_032_48.0.mrc            8    48.000600    85.000000    96.000000     -4.00000 MotionCorr/job002/frames/TS_01_032_48_0_PS.mrc MotionCorr/job002/frames/TS_01_032_48_0_EVN.mrc MotionCorr/job002/frames/TS_01_032_48_0_ODD.mrc MotionCorr/job002/frames/TS_01_032_48_0.mrc MotionCorr/job002/frames/TS_01_032_48_0.star     5.189981     0.000000     5.189981 CtfFind/job003/frames/TS_01_032_48_0_PS.ctf:mrc 38358.822251 38735.907127   264.953125   133.789363     0.103284    11.749141     1.007310     0.256507    47.967003    85.516115    -29.36888   -167.52360     0.527983 
frames/TS_01_033_51.0.mrc            8    51.000800    85.000000    99.000000     -4.00000 MotionCorr/job002/frames/TS_01_033_51_0_PS.mrc MotionCorr/job002/frames/TS_01_033_51_0_EVN.mrc MotionCorr/job002/frames/TS_01_033_51_0_ODD.mrc MotionCorr/job002/frames/TS_01_033_51_0.mrc MotionCorr/job002/frames/TS_01_033_51_0.star     6.903079     0.000000     6.903079 CtfFind/job003/frames/TS_01_033_51_0_PS.ctf:mrc 38989.886039 39420.810258   121.355469   109.641969     0.074141    12.356855     0.623900     0.200733    50.982760    85.509428    -11.55568   -142.06380     0.497225 
frames/TS_01_036_54.0.mrc            8    54.000900    85.000000   108.000000     -4.00000 MotionCorr/job002/frames/TS_01_036_54_0_PS.mrc MotionCorr/job002/frames/TS_01_036_54_0_EVN.mrc MotionCorr/job002/frames/TS_01_036_54_0_ODD.mrc MotionCorr/job002/frames/TS_01_036_54_0.mrc MotionCorr/job002/frames/TS_01_036_54_0.star     4.851630     0.000000     4.851630 CtfFind/job003/frames/TS_01_036_54_0_PS.ctf:mrc 38874.088477 39153.384893   162.777344   100.107912     0.105213    13.782646     0.538310     0.229039    53.979341    85.543569    -31.73277   -161.15003     0.419917 
frames/TS_01_037_57.0.mrc            8    57.000000    85.000000   111.000000     -4.00000 MotionCorr/job002/frames/TS_01_037_57_0_PS.mrc MotionCorr/job002/frames/TS_01_037_57_0_EVN.mrc MotionCorr/job002/frames/TS_01_037_57_0_ODD.mrc MotionCorr/job002/frames/TS_01_037_57_0.mrc MotionCorr/job002/frames/TS_01_037_57_0.star     5.856454     0.000000     5.856454 CtfFind/job003/frames/TS_01_037_57_0_PS.ctf:mrc 37648.584088 37928.327330     2.816406   116.667542     0.115731    14.626481     0.839010     0.210419    56.981048    85.556416    -13.13275   -136.74018     0.355316 
frames/TS_01_040_60.0.mrc            8    60.000600    85.000000   120.000000     -4.00000 MotionCorr/job002/frames/TS_01_040_60_0_PS.mrc MotionCorr/job002/frames/TS_01_040_60_0_EVN.mrc MotionCorr/job002/frames/TS_01_040_60_0_ODD.mrc MotionCorr/job002/frames/TS_01_040_60_0.mrc MotionCorr/job002/frames/TS_01_040_60_0.star     6.036839     0.000000     6.036839 CtfFind/job003/frames/TS_01_040_60_0_PS.ctf:mrc 38614.393254 38945.601734    95.328125   108.895648     0.159484    14.333951     1.524560     0.212627    59.985276    85.604228    -30.03908   -156.37803     0.313368 
 
