
# version 50001

data_TS_43

loop_ 
_rlnMicrographMovieName #1 
_rlnTomoTiltMovieFrameCount #2 
_rlnTomoNominalStageTiltAngle #3 
_rlnTomoNominalTiltAxisAngle #4 
_rlnMicrographPreExposure #5 
_rlnTomoNominalDefocus #6 
_rlnCtfPowerSpectrum #7 
_rlnMicrographNameEven #8 
_rlnMicrographNameOdd #9 
_rlnMicrographName #10 
_rlnMicrographMetadata #11 
_rlnAccumMotionTotal #12 
_rlnAccumMotionEarly #13 
_rlnAccumMotionLate #14 
_rlnCtfImage #15 
_rlnDefocusU #16 
_rlnDefocusV #17 
_rlnCtfAstigmatism #18 
_rlnDefocusAngle #19 
_rlnCtfFigureOfMerit #20 
_rlnCtfMaxResolution #21 
_rlnCtfIceRingDensity #22 
_rlnTomoXTilt #23 
_rlnTomoYTilt #24 
_rlnTomoZRot #25 
_rlnTomoXShiftAngst #26 
_rlnTomoYShiftAngst #27 
_rlnCtfScalefactor #28 
frames/TS_43_039_-60.0.mrc           10    -59.99910    85.000000   117.000000     -2.50000 MotionCorr/job002/frames/TS_43_039_-60_0_PS.mrc MotionCorr/job002/frames/TS_43_039_-60_0_EVN.mrc MotionCorr/job002/frames/TS_43_039_-60_0_ODD.mrc MotionCorr/job002/frames/TS_43_039_-60_0.mrc MotionCorr/job002/frames/TS_43_039_-60_0.star    16.206940     0.000000    16.206940 CtfFind/job003/frames/TS_43_039_-60_0_PS.ctf:mrc 27077.200492 27529.662712    72.912109   152.048116     0.101234    14.931199     0.610390     0.108724    -59.98712    85.155141    11.028263    46.380704     0.435669 
frames/TS_43_038_-57.0.mrc           10    -56.99900    85.000000   114.000000     -2.50000 MotionCorr/job002/frames/TS_43_038_-57_0_PS.mrc MotionCorr/job002/frames/TS_43_038_-57_0_EVN.mrc MotionCorr/job002/frames/TS_43_038_-57_0_ODD.mrc MotionCorr/job002/frames/TS_43_038_-57_0.mrc MotionCorr/job002/frames/TS_43_038_-57_0.star    15.545098     0.000000    15.545098 CtfFind/job003/frames/TS_43_038_-57_0_PS.ctf:mrc 26502.708482 26674.735324   148.404297   -174.80619     0.118246    13.782646     0.824470     0.130186    -56.96396    85.135901    21.932651    51.617472     0.496246 
frames/TS_43_035_-54.0.mrc           10    -53.99940    85.000000   105.000000     -2.50000 MotionCorr/job002/frames/TS_43_035_-54_0_PS.mrc MotionCorr/job002/frames/TS_43_035_-54_0_EVN.mrc MotionCorr/job002/frames/TS_43_035_-54_0_ODD.mrc MotionCorr/job002/frames/TS_43_035_-54_0.mrc MotionCorr/job002/frames/TS_43_035_-54_0.star     9.453412     0.000000     9.453412 CtfFind/job003/frames/TS_43_035_-54_0_PS.ctf:mrc 26834.614106 26993.875049   188.353516   160.487641     0.108487    14.052894     0.358210     0.132593    -53.98126    85.121027    13.905944    37.301173     0.577165 
frames/TS_43_034_-51.0.mrc           10    -51.00030    85.000000   102.000000     -2.50000 MotionCorr/job002/frames/TS_43_034_-51_0_PS.mrc MotionCorr/job002/frames/TS_43_034_-51_0_EVN.mrc MotionCorr/job002/frames/TS_43_034_-51_0_ODD.mrc MotionCorr/job002/frames/TS_43_034_-51_0.mrc MotionCorr/job002/frames/TS_43_034_-51_0.star     8.636927     0.000000     8.636927 CtfFind/job003/frames/TS_43_034_-51_0_PS.ctf:mrc 26135.907290 26451.272534    87.132812   142.925315     0.100523    15.580382     0.593780     0.077296    -50.93045    85.127405    21.120381    52.538334     0.539830 
frames/TS_43_031_-48.0.mrc           10    -47.99910    85.000000    93.000000     -2.50000 MotionCorr/job002/frames/TS_43_031_-48_0_PS.mrc MotionCorr/job002/frames/TS_43_031_-48_0_EVN.mrc MotionCorr/job002/frames/TS_43_031_-48_0_ODD.mrc MotionCorr/job002/frames/TS_43_031_-48_0.mrc MotionCorr/job002/frames/TS_43_031_-48_0.star     7.402671     0.000000     7.402671 CtfFind/job003/frames/TS_43_031_-48_0_PS.ctf:mrc 25960.363269 26352.756189    46.164062   160.684595     0.100539    10.696979     0.562810     0.077686    -47.99457    85.115256    11.523306    28.603015     0.672000 
frames/TS_43_030_-45.0.mrc           10    -45.00000    85.000000    90.000000     -2.50000 MotionCorr/job002/frames/TS_43_030_-45_0_PS.mrc MotionCorr/job002/frames/TS_43_030_-45_0_EVN.mrc MotionCorr/job002/frames/TS_43_030_-45_0_ODD.mrc MotionCorr/job002/frames/TS_43_030_-45_0.mrc MotionCorr/job002/frames/TS_43_030_-45_0.star     6.843554     0.000000     6.843554 CtfFind/job003/frames/TS_43_030_-45_0_PS.ctf:mrc 25520.019128 25945.511305    56.287109   158.279234     0.106071    11.376152     0.693640     0.098188    -44.97850    85.126788    19.293253    44.389247     0.685332 
frames/TS_43_027_-42.0.mrc           10    -41.99940    85.000000    81.000000     -2.50000 MotionCorr/job002/frames/TS_43_027_-42_0_PS.mrc MotionCorr/job002/frames/TS_43_027_-42_0_EVN.mrc MotionCorr/job002/frames/TS_43_027_-42_0_ODD.mrc MotionCorr/job002/frames/TS_43_027_-42_0.mrc MotionCorr/job002/frames/TS_43_027_-42_0.star     6.120841     0.000000     6.120841 CtfFind/job003/frames/TS_43_027_-42_0_PS.ctf:mrc 25710.373600 26130.198563    91.169922   157.979914     0.092008    10.859054     0.487080     0.069600    -41.99788    85.130961    12.326127    27.044616     0.745051 
frames/TS_43_026_-39.0.mrc           10    -38.99970    85.000000    78.000000     -2.50000 MotionCorr/job002/frames/TS_43_026_-39_0_PS.mrc MotionCorr/job002/frames/TS_43_026_-39_0_EVN.mrc MotionCorr/job002/frames/TS_43_026_-39_0_ODD.mrc MotionCorr/job002/frames/TS_43_026_-39_0.mrc MotionCorr/job002/frames/TS_43_026_-39_0.star     5.769808     0.000000     5.769808 CtfFind/job003/frames/TS_43_026_-39_0_PS.ctf:mrc 25358.462034 25722.454205   390.078125   172.756272     0.077061    10.539670     0.682360     0.070354    -38.99075    85.139826    16.586305    44.541637     0.769344 
frames/TS_43_023_-36.0.mrc           10    -36.00010    85.000000    69.000000     -2.50000 MotionCorr/job002/frames/TS_43_023_-36_0_PS.mrc MotionCorr/job002/frames/TS_43_023_-36_0_EVN.mrc MotionCorr/job002/frames/TS_43_023_-36_0_ODD.mrc MotionCorr/job002/frames/TS_43_023_-36_0.mrc MotionCorr/job002/frames/TS_43_023_-36_0.star     4.895332     0.000000     4.895332 CtfFind/job003/frames/TS_43_023_-36_0_PS.ctf:mrc 25010.351778 25608.626804   379.738281   146.385779     0.080132     9.817775     0.546200     0.064952    -36.02320    85.127309     3.956382    21.032390     0.866277 
frames/TS_43_022_-33.0.mrc           10    -33.00000    85.000000    66.000000     -2.50000 MotionCorr/job002/frames/TS_43_022_-33_0_PS.mrc MotionCorr/job002/frames/TS_43_022_-33_0_EVN.mrc MotionCorr/job002/frames/TS_43_022_-33_0_ODD.mrc MotionCorr/job002/frames/TS_43_022_-33_0.mrc MotionCorr/job002/frames/TS_43_022_-33_0.star     3.799344     0.000000     3.799344 CtfFind/job003/frames/TS_43_022_-33_0_PS.ctf:mrc 24842.034634 25445.884456   575.750000   126.220804     0.060713     9.555968     0.468210     0.084646    -33.02433    85.134262     7.778452    45.381876     0.871993 
frames/TS_43_019_-30.0.mrc           10    -29.99980    85.000000    57.000000     -2.50000 MotionCorr/job002/frames/TS_43_019_-30_0_PS.mrc MotionCorr/job002/frames/TS_43_019_-30_0_EVN.mrc MotionCorr/job002/frames/TS_43_019_-30_0_ODD.mrc MotionCorr/job002/frames/TS_43_019_-30_0.mrc MotionCorr/job002/frames/TS_43_019_-30_0.star     5.360931     0.000000     5.360931 CtfFind/job003/frames/TS_43_019_-30_0_PS.ctf:mrc 24983.448145 25125.982448   560.765625   -141.02832     0.043107     9.685102     0.494240     0.065465    -30.01849    85.133120     -0.89184    18.434209     0.942004 
frames/TS_43_018_-27.0.mrc           10    -27.00070    85.000000    54.000000     -2.50000 MotionCorr/job002/frames/TS_43_018_-27_0_PS.mrc MotionCorr/job002/frames/TS_43_018_-27_0_EVN.mrc MotionCorr/job002/frames/TS_43_018_-27_0_ODD.mrc MotionCorr/job002/frames/TS_43_018_-27_0.mrc MotionCorr/job002/frames/TS_43_018_-27_0.star     3.866844     0.000000     3.866844 CtfFind/job003/frames/TS_43_018_-27_0_PS.ctf:mrc 24797.722183 25254.188474   153.384766   125.232420     0.061933     8.958720     0.649010     0.048680    -27.02767    85.143322     1.002804    43.227703     1.007645 
frames/TS_43_015_-24.0.mrc           10    -24.00060    85.000000    45.000000     -2.50000 MotionCorr/job002/frames/TS_43_015_-24_0_PS.mrc MotionCorr/job002/frames/TS_43_015_-24_0_EVN.mrc MotionCorr/job002/frames/TS_43_015_-24_0_ODD.mrc MotionCorr/job002/frames/TS_43_015_-24_0.mrc MotionCorr/job002/frames/TS_43_015_-24_0.star     4.421890     0.000000     4.421890 CtfFind/job003/frames/TS_43_015_-24_0_PS.ctf:mrc 24730.180940 25392.941219   182.968750   146.337694     0.049548     7.624442     0.529180     0.033381    -24.05327    85.149764     -5.13640    14.439374     1.103724 
frames/TS_43_014_-21.0.mrc           10    -21.00140    85.000000    42.000000     -2.50000 MotionCorr/job002/frames/TS_43_014_-21_0_PS.mrc MotionCorr/job002/frames/TS_43_014_-21_0_EVN.mrc MotionCorr/job002/frames/TS_43_014_-21_0_ODD.mrc MotionCorr/job002/frames/TS_43_014_-21_0.mrc MotionCorr/job002/frames/TS_43_014_-21_0.star     4.970441     0.000000     4.970441 CtfFind/job003/frames/TS_43_014_-21_0_PS.ctf:mrc 24814.612620 25151.162943   330.720703   124.791450     0.066622     6.825691     0.626310     0.016402    -21.07975    85.150192     -0.06921    34.837493     1.086898 
frames/TS_43_011_-18.0.mrc           10    -18.00330    85.000000    33.000000     -2.50000 MotionCorr/job002/frames/TS_43_011_-18_0_PS.mrc MotionCorr/job002/frames/TS_43_011_-18_0_EVN.mrc MotionCorr/job002/frames/TS_43_011_-18_0_ODD.mrc MotionCorr/job002/frames/TS_43_011_-18_0.mrc MotionCorr/job002/frames/TS_43_011_-18_0.star     5.192582     0.000000     5.192582 CtfFind/job003/frames/TS_43_011_-18_0_PS.ctf:mrc 24760.128464 25268.943292   473.890625   128.624849     0.068067     6.698108     0.651080     0.004249    -18.05990    85.153818     2.507261    20.144418     1.239593 
frames/TS_43_010_-15.0.mrc           10    -15.00370    85.000000    30.000000     -2.50000 MotionCorr/job002/frames/TS_43_010_-15_0_PS.mrc MotionCorr/job002/frames/TS_43_010_-15_0_EVN.mrc MotionCorr/job002/frames/TS_43_010_-15_0_ODD.mrc MotionCorr/job002/frames/TS_43_010_-15_0.mrc MotionCorr/job002/frames/TS_43_010_-15_0.star     3.478029     0.000000     3.478029 CtfFind/job003/frames/TS_43_010_-15_0_PS.ctf:mrc 24823.179729 25254.320541    88.986328   129.782556     0.061613     6.825691     0.625790     0.018117    -15.05695    85.156318     6.983537    37.083802     1.274566 
frames/TS_43_007_-12.0.mrc           10    -11.99900    85.000000    21.000000     -2.50000 MotionCorr/job002/frames/TS_43_007_-12_0_PS.mrc MotionCorr/job002/frames/TS_43_007_-12_0_EVN.mrc MotionCorr/job002/frames/TS_43_007_-12_0_ODD.mrc MotionCorr/job002/frames/TS_43_007_-12_0.mrc MotionCorr/job002/frames/TS_43_007_-12_0.star     3.865264     0.000000     3.865264 CtfFind/job003/frames/TS_43_007_-12_0_PS.ctf:mrc 24888.376639 25178.021782   588.361328   142.704598     0.049256     7.096016     0.756730     0.002315    -12.05226    85.163169     4.832519    33.190261     1.344449 
frames/TS_43_006_-9.0.mrc           10     -8.99890    85.000000    18.000000     -2.50000 MotionCorr/job002/frames/TS_43_006_-9_0_PS.mrc MotionCorr/job002/frames/TS_43_006_-9_0_EVN.mrc MotionCorr/job002/frames/TS_43_006_-9_0_ODD.mrc MotionCorr/job002/frames/TS_43_006_-9_0.mrc MotionCorr/job002/frames/TS_43_006_-9_0.star     3.285717     0.000000     3.285717 CtfFind/job003/frames/TS_43_006_-9_0_PS.ctf:mrc 24904.132551 25150.467352   337.947266   144.301600     0.068861     5.599200     0.734410     -0.01427     -9.04683    85.167599     5.500393    22.446016     1.402011 
frames/TS_43_003_-6.0.mrc           10     -5.99927    85.000000     9.000000     -2.50000 MotionCorr/job002/frames/TS_43_003_-6_0_PS.mrc MotionCorr/job002/frames/TS_43_003_-6_0_EVN.mrc MotionCorr/job002/frames/TS_43_003_-6_0_ODD.mrc MotionCorr/job002/frames/TS_43_003_-6_0.mrc MotionCorr/job002/frames/TS_43_003_-6_0.star     3.384419     0.000000     3.384419 CtfFind/job003/frames/TS_43_003_-6_0_PS.ctf:mrc 24950.924928 25284.813709   588.732422   142.066563     0.061944     6.125620     0.777030     -0.01161     -6.02613    85.170592     5.808415    38.447549     1.399263 
frames/TS_43_002_-3.0.mrc           10     -2.99913    85.000000     6.000000     -2.50000 MotionCorr/job002/frames/TS_43_002_-3_0_PS.mrc MotionCorr/job002/frames/TS_43_002_-3_0_EVN.mrc MotionCorr/job002/frames/TS_43_002_-3_0_ODD.mrc MotionCorr/job002/frames/TS_43_002_-3_0.mrc MotionCorr/job002/frames/TS_43_002_-3_0.star     3.167235     0.000000     3.167235 CtfFind/job003/frames/TS_43_002_-3_0_PS.ctf:mrc 24980.372167 25218.478726   112.949219   135.523635     0.066759     5.826810     0.582620     -0.01151     -3.01606    85.175976     6.503823    14.459443     1.461503 
frames/TS_43_000_0.0.mrc           10     0.000000    85.000000     0.000000     -2.50000 MotionCorr/job002/frames/TS_43_000_0_0_PS.mrc MotionCorr/job002/frames/TS_43_000_0_0_EVN.mrc MotionCorr/job002/frames/TS_43_000_0_0_ODD.mrc MotionCorr/job002/frames/TS_43_000_0_0.mrc MotionCorr/job002/frames/TS_43_000_0_0.star     2.810945     0.896793     1.914152 CtfFind/job003/frames/TS_43_000_0_0_PS.ctf:mrc 24932.919909 25189.748340   232.798828   143.925439     0.062880     5.269835     0.692870     -0.01354     -0.02443    85.184545     -1.88158     -4.46161     1.362523 
frames/TS_43_001_3.0.mrc           10     3.000130    85.000000     3.000000     -2.50000 MotionCorr/job002/frames/TS_43_001_3_0_PS.mrc MotionCorr/job002/frames/TS_43_001_3_0_EVN.mrc MotionCorr/job002/frames/TS_43_001_3_0_ODD.mrc MotionCorr/job002/frames/TS_43_001_3_0.mrc MotionCorr/job002/frames/TS_43_001_3_0.star     3.184465     0.000000     3.184465 CtfFind/job003/frames/TS_43_001_3_0_PS.ctf:mrc 24860.002265 25144.565714   178.857422   133.572679     0.064948     5.688076     0.706130     -0.00551     3.004639    85.188226     0.434147    -24.73041     1.364321 
frames/TS_43_004_6.0.mrc           10     5.999270    85.000000    12.000000     -2.50000 MotionCorr/job002/frames/TS_43_004_6_0_PS.mrc MotionCorr/job002/frames/TS_43_004_6_0_EVN.mrc MotionCorr/job002/frames/TS_43_004_6_0_ODD.mrc MotionCorr/job002/frames/TS_43_004_6_0.mrc MotionCorr/job002/frames/TS_43_004_6_0.star     2.978147     0.000000     2.978147 CtfFind/job003/frames/TS_43_004_6_0_PS.ctf:mrc 24819.950632 25112.013329   282.867188   127.354151     0.076066     5.826810     0.567600     0.007554     6.061199    85.196335     -2.31635    -38.66867     1.429344 
frames/TS_43_005_9.0.mrc           10     8.998400    85.000000    15.000000     -2.50000 MotionCorr/job002/frames/TS_43_005_9_0_PS.mrc MotionCorr/job002/frames/TS_43_005_9_0_EVN.mrc MotionCorr/job002/frames/TS_43_005_9_0_ODD.mrc MotionCorr/job002/frames/TS_43_005_9_0.mrc MotionCorr/job002/frames/TS_43_005_9_0.star     3.477681     0.000000     3.477681 CtfFind/job003/frames/TS_43_005_9_0_PS.ctf:mrc 24874.790778 25182.662587   166.478516   136.965565     0.070367     5.923120     0.569470     0.012206     9.073426    85.203068     -0.54019    -23.83574     1.443185 
frames/TS_43_008_12.0.mrc           10    11.999000    85.000000    24.000000     -2.50000 MotionCorr/job002/frames/TS_43_008_12_0_PS.mrc MotionCorr/job002/frames/TS_43_008_12_0_EVN.mrc MotionCorr/job002/frames/TS_43_008_12_0_ODD.mrc MotionCorr/job002/frames/TS_43_008_12_0.mrc MotionCorr/job002/frames/TS_43_008_12_0.star     3.335631     0.000000     3.335631 CtfFind/job003/frames/TS_43_008_12_0_PS.ctf:mrc 24866.882776 25137.773035   343.832031   135.497823     0.074413     6.515432     0.543050     0.013578    12.111941    85.210331     -1.76890    -39.75716     1.365919 
frames/TS_43_009_15.0.mrc           10    15.000200    85.000000    27.000000     -2.50000 MotionCorr/job002/frames/TS_43_009_15_0_PS.mrc MotionCorr/job002/frames/TS_43_009_15_0_EVN.mrc MotionCorr/job002/frames/TS_43_009_15_0_ODD.mrc MotionCorr/job002/frames/TS_43_009_15_0.mrc MotionCorr/job002/frames/TS_43_009_15_0.star     3.416277     0.000000     3.416277 CtfFind/job003/frames/TS_43_009_15_0_PS.ctf:mrc 24729.951318 25096.642600   392.593750   132.179591     0.086109     6.456735     0.724480     0.023057    15.113085    85.210607     -4.24708    -21.79021     1.315447 
frames/TS_43_012_18.0.mrc           10    18.000800    85.000000    36.000000     -2.50000 MotionCorr/job002/frames/TS_43_012_18_0_PS.mrc MotionCorr/job002/frames/TS_43_012_18_0_EVN.mrc MotionCorr/job002/frames/TS_43_012_18_0_ODD.mrc MotionCorr/job002/frames/TS_43_012_18_0.mrc MotionCorr/job002/frames/TS_43_012_18_0.star     3.552104     0.000000     3.552104 CtfFind/job003/frames/TS_43_012_18_0_PS.ctf:mrc 24683.533642 25121.709414   227.203125   134.953993     0.083819     6.891323     0.691180     0.027002    18.130261    85.217389     -4.20681    -44.20346     1.222167 
frames/TS_43_013_21.0.mrc           10    20.999900    85.000000    39.000000     -2.50000 MotionCorr/job002/frames/TS_43_013_21_0_PS.mrc MotionCorr/job002/frames/TS_43_013_21_0_EVN.mrc MotionCorr/job002/frames/TS_43_013_21_0_ODD.mrc MotionCorr/job002/frames/TS_43_013_21_0.mrc MotionCorr/job002/frames/TS_43_013_21_0.star     3.772947     0.000000     3.772947 CtfFind/job003/frames/TS_43_013_21_0_PS.ctf:mrc 24904.936856 25056.238737   616.460938   136.238904     0.071382     7.313241     0.628430     0.086867    21.148252    85.238101     -5.72127    -43.81706     1.185719 
frames/TS_43_016_24.0.mrc           10    23.999600    85.000000    48.000000     -2.50000 MotionCorr/job002/frames/TS_43_016_24_0_PS.mrc MotionCorr/job002/frames/TS_43_016_24_0_EVN.mrc MotionCorr/job002/frames/TS_43_016_24_0_ODD.mrc MotionCorr/job002/frames/TS_43_016_24_0.mrc MotionCorr/job002/frames/TS_43_016_24_0.star     3.618342     0.000000     3.618342 CtfFind/job003/frames/TS_43_016_24_0_PS.ctf:mrc 24664.295758 25202.808233   170.056641   142.838817     0.064698     7.166976     0.649240     0.102889    24.170706    85.257580     -9.19239    -42.16433     1.149466 
frames/TS_43_017_27.0.mrc           10    26.999700    85.000000    51.000000     -2.50000 MotionCorr/job002/frames/TS_43_017_27_0_PS.mrc MotionCorr/job002/frames/TS_43_017_27_0_EVN.mrc MotionCorr/job002/frames/TS_43_017_27_0_ODD.mrc MotionCorr/job002/frames/TS_43_017_27_0.mrc MotionCorr/job002/frames/TS_43_017_27_0.star     3.617766     0.000000     3.617766 CtfFind/job003/frames/TS_43_017_27_0_PS.ctf:mrc 24464.769957 25410.903244   420.746094   160.551502     0.081374     8.052782     0.950310     0.088880    27.171739    85.265135     -8.58674    -34.13945     1.072879 
frames/TS_43_020_30.0.mrc           10    29.999800    85.000000    60.000000     -2.50000 MotionCorr/job002/frames/TS_43_020_30_0_PS.mrc MotionCorr/job002/frames/TS_43_020_30_0_EVN.mrc MotionCorr/job002/frames/TS_43_020_30_0_ODD.mrc MotionCorr/job002/frames/TS_43_020_30_0.mrc MotionCorr/job002/frames/TS_43_020_30_0.star     4.117562     0.000000     4.117562 CtfFind/job003/frames/TS_43_020_30_0_PS.ctf:mrc 24822.790806 25074.112724   119.605469   122.282605     0.086438     9.188430     0.669700     0.098019    30.137390    85.266521    -13.05785    -43.03371     1.005277 
frames/TS_43_021_33.0.mrc           10    33.000000    85.000000    63.000000     -2.50000 MotionCorr/job002/frames/TS_43_021_33_0_PS.mrc MotionCorr/job002/frames/TS_43_021_33_0_EVN.mrc MotionCorr/job002/frames/TS_43_021_33_0_ODD.mrc MotionCorr/job002/frames/TS_43_021_33_0.mrc MotionCorr/job002/frames/TS_43_021_33_0.star     4.916295     0.000000     4.916295 CtfFind/job003/frames/TS_43_021_33_0_PS.ctf:mrc 24268.567276 25160.503565   100.339844   136.412969     0.070019     8.740214     0.724740     0.119209    33.172586    85.282326     -8.41209    -30.99958     1.034503 
frames/TS_43_024_36.0.mrc           10    35.999600    85.000000    72.000000     -2.50000 MotionCorr/job002/frames/TS_43_024_36_0_PS.mrc MotionCorr/job002/frames/TS_43_024_36_0_EVN.mrc MotionCorr/job002/frames/TS_43_024_36_0_ODD.mrc MotionCorr/job002/frames/TS_43_024_36_0.mrc MotionCorr/job002/frames/TS_43_024_36_0.star     5.823372     0.000000     5.823372 CtfFind/job003/frames/TS_43_024_36_0_PS.ctf:mrc 24485.098625 25018.537013   271.441406   109.860214     0.112629     9.685102     0.672340     0.132421    36.161549    85.304611    -17.35678    -52.80590     0.883541 
frames/TS_43_025_39.0.mrc           10    38.999200    85.000000    75.000000     -2.50000 MotionCorr/job002/frames/TS_43_025_39_0_PS.mrc MotionCorr/job002/frames/TS_43_025_39_0_EVN.mrc MotionCorr/job002/frames/TS_43_025_39_0_ODD.mrc MotionCorr/job002/frames/TS_43_025_39_0.mrc MotionCorr/job002/frames/TS_43_025_39_0.star     4.309618     0.000000     4.309618 CtfFind/job003/frames/TS_43_025_39_0_PS.ctf:mrc 24732.696483 25177.473960   266.675781   169.850904     0.097874     8.958720     0.485110     0.148467    39.193072    85.305440     -4.75441    -29.78813     0.868203 
frames/TS_43_028_42.0.mrc           10    41.999400    85.000000    84.000000     -2.50000 MotionCorr/job002/frames/TS_43_028_42_0_PS.mrc MotionCorr/job002/frames/TS_43_028_42_0_EVN.mrc MotionCorr/job002/frames/TS_43_028_42_0_ODD.mrc MotionCorr/job002/frames/TS_43_028_42_0.mrc MotionCorr/job002/frames/TS_43_028_42_0.star     4.040794     0.000000     4.040794 CtfFind/job003/frames/TS_43_028_42_0_PS.ctf:mrc 25014.572691 25711.428506   116.673828   161.525735     0.082902     9.555968     0.634540     0.199117    42.175694    85.344068    -17.97584    -50.48999     0.811636 
frames/TS_43_029_45.0.mrc           10    44.999000    85.000000    87.000000     -2.50000 MotionCorr/job002/frames/TS_43_029_45_0_PS.mrc MotionCorr/job002/frames/TS_43_029_45_0_EVN.mrc MotionCorr/job002/frames/TS_43_029_45_0_ODD.mrc MotionCorr/job002/frames/TS_43_029_45_0.mrc MotionCorr/job002/frames/TS_43_029_45_0.star     4.307779     0.000000     4.307779 CtfFind/job003/frames/TS_43_029_45_0_PS.ctf:mrc 25026.106130 25508.667310   117.291016   146.647483     0.105520     9.817775     0.607800     0.179134    45.137697    85.346442     -3.42410    -33.73628     0.822885 
frames/TS_43_032_48.0.mrc           10    47.997100    85.000000    96.000000     -2.50000 MotionCorr/job002/frames/TS_43_032_48_0_PS.mrc MotionCorr/job002/frames/TS_43_032_48_0_EVN.mrc MotionCorr/job002/frames/TS_43_032_48_0_ODD.mrc MotionCorr/job002/frames/TS_43_032_48_0.mrc MotionCorr/job002/frames/TS_43_032_48_0.star     3.090059     0.000000     3.090059 CtfFind/job003/frames/TS_43_032_48_0_PS.ctf:mrc 25153.765981 25658.812799   178.550781   128.894163     0.157173    11.026116     0.630040     0.237631    48.151167    85.381604    -22.60387    -56.98329     0.759488 
frames/TS_43_033_51.0.mrc           10    50.996300    85.000000    99.000000     -2.50000 MotionCorr/job002/frames/TS_43_033_51_0_PS.mrc MotionCorr/job002/frames/TS_43_033_51_0_EVN.mrc MotionCorr/job002/frames/TS_43_033_51_0_ODD.mrc MotionCorr/job002/frames/TS_43_033_51_0.mrc MotionCorr/job002/frames/TS_43_033_51_0.star     5.632723     0.000000     5.632723 CtfFind/job003/frames/TS_43_033_51_0_PS.ctf:mrc 24881.314179 25426.355929   185.080078   125.223347     0.100378    11.944960     0.412290     0.257548    51.168599    85.398047     -7.71256    -34.35074     0.728723 
frames/TS_43_036_54.0.mrc           10    53.996900    85.000000   108.000000     -2.50000 MotionCorr/job002/frames/TS_43_036_54_0_PS.mrc MotionCorr/job002/frames/TS_43_036_54_0_EVN.mrc MotionCorr/job002/frames/TS_43_036_54_0_ODD.mrc MotionCorr/job002/frames/TS_43_036_54_0.mrc MotionCorr/job002/frames/TS_43_036_54_0.star     3.820902     0.000000     3.820902 CtfFind/job003/frames/TS_43_036_54_0_PS.ctf:mrc 25190.066139 25333.673612   101.689453   154.659046     0.150460    12.573642     0.488930     0.317599    54.161907    85.436879    -23.41158    -60.37150     0.685759 
frames/TS_43_037_57.0.mrc           10    56.996000    85.000000   111.000000     -2.50000 MotionCorr/job002/frames/TS_43_037_57_0_PS.mrc MotionCorr/job002/frames/TS_43_037_57_0_EVN.mrc MotionCorr/job002/frames/TS_43_037_57_0_ODD.mrc MotionCorr/job002/frames/TS_43_037_57_0.mrc MotionCorr/job002/frames/TS_43_037_57_0.star     7.472044     0.000000     7.472044 CtfFind/job003/frames/TS_43_037_57_0_PS.ctf:mrc 25180.265694 25375.216020    30.246094   152.248279     0.158437    13.272177     0.996970     0.385193    57.146435    85.507413     -9.55812    -46.08689     0.543670 
frames/TS_43_040_60.0.mrc           10    59.996200    85.000000   120.000000     -2.50000 MotionCorr/job002/frames/TS_43_040_60_0_PS.mrc MotionCorr/job002/frames/TS_43_040_60_0_EVN.mrc MotionCorr/job002/frames/TS_43_040_60_0_ODD.mrc MotionCorr/job002/frames/TS_43_040_60_0.mrc MotionCorr/job002/frames/TS_43_040_60_0.star     5.212197     0.000000     5.212197 CtfFind/job003/frames/TS_43_040_60_0_PS.ctf:mrc 25279.715196 25296.926952   119.343750   123.201783     0.192743    15.248884     0.518320     0.415985    60.173184    85.549392    -29.45506    -80.46098     0.471089 
 
