
# version 50001

data_TS_45

loop_ 
_rlnMicrographMovieName #1 
_rlnTomoTiltMovieFrameCount #2 
_rlnTomoNominalStageTiltAngle #3 
_rlnTomoNominalTiltAxisAngle #4 
_rlnMicrographPreExposure #5 
_rlnTomoNominalDefocus #6 
_rlnCtfPowerSpectrum #7 
_rlnMicrographNameEven #8 
_rlnMicrographNameOdd #9 
_rlnMicrographName #10 
_rlnMicrographMetadata #11 
_rlnAccumMotionTotal #12 
_rlnAccumMotionEarly #13 
_rlnAccumMotionLate #14 
_rlnCtfImage #15 
_rlnDefocusU #16 
_rlnDefocusV #17 
_rlnCtfAstigmatism #18 
_rlnDefocusAngle #19 
_rlnCtfFigureOfMerit #20 
_rlnCtfMaxResolution #21 
_rlnCtfIceRingDensity #22 
_rlnTomoXTilt #23 
_rlnTomoYTilt #24 
_rlnTomoZRot #25 
_rlnTomoXShiftAngst #26 
_rlnTomoYShiftAngst #27 
_rlnCtfScalefactor #28 
frames/TS_45_039_-60.0.mrc           10    -59.99910    85.000000   117.000000     -3.00000 MotionCorr/job002/frames/TS_45_039_-60_0_PS.mrc MotionCorr/job002/frames/TS_45_039_-60_0_EVN.mrc MotionCorr/job002/frames/TS_45_039_-60_0_ODD.mrc MotionCorr/job002/frames/TS_45_039_-60_0.mrc MotionCorr/job002/frames/TS_45_039_-60_0.star     8.592580     0.000000     8.592580 CtfFind/job003/frames/TS_45_039_-60_0_PS.ctf:mrc 30225.752951 30434.029254    56.453125   139.232843     0.139703    14.931199     0.689400     0.055863    -60.03032    84.989918    11.762871   162.835628     0.449808 
frames/TS_45_038_-57.0.mrc           10    -56.99900    85.000000   114.000000     -3.00000 MotionCorr/job002/frames/TS_45_038_-57_0_PS.mrc MotionCorr/job002/frames/TS_45_038_-57_0_EVN.mrc MotionCorr/job002/frames/TS_45_038_-57_0_ODD.mrc MotionCorr/job002/frames/TS_45_038_-57_0.mrc MotionCorr/job002/frames/TS_45_038_-57_0.star     7.885448     0.000000     7.885448 CtfFind/job003/frames/TS_45_038_-57_0_PS.ctf:mrc 30334.282228 30606.919640    12.480469   158.817639     0.153567    16.288582     0.521070     0.019384    -57.04411    85.038322    25.752233   153.098863     0.483243 
frames/TS_45_035_-54.0.mrc           10    -53.99990    85.000000   105.000000     -3.00000 MotionCorr/job002/frames/TS_45_035_-54_0_PS.mrc MotionCorr/job002/frames/TS_45_035_-54_0_EVN.mrc MotionCorr/job002/frames/TS_45_035_-54_0_ODD.mrc MotionCorr/job002/frames/TS_45_035_-54_0.mrc MotionCorr/job002/frames/TS_45_035_-54_0.star     6.229998     0.000000     6.229998 CtfFind/job003/frames/TS_45_035_-54_0_PS.ctf:mrc 31029.504962 31164.502154    76.355469   174.187784     0.112120    11.749141     0.622660     0.034441    -54.04934    85.033100    21.373329   150.378844     0.515936 
frames/TS_45_034_-51.0.mrc           10    -50.99930    85.000000   102.000000     -3.00000 MotionCorr/job002/frames/TS_45_034_-51_0_PS.mrc MotionCorr/job002/frames/TS_45_034_-51_0_EVN.mrc MotionCorr/job002/frames/TS_45_034_-51_0_ODD.mrc MotionCorr/job002/frames/TS_45_034_-51_0.mrc MotionCorr/job002/frames/TS_45_034_-51_0.star     6.296544     0.000000     6.296544 CtfFind/job003/frames/TS_45_034_-51_0_PS.ctf:mrc 31308.372680 31643.192682   129.976562   150.582208     0.121843     9.685102     0.793180     -0.01431    -51.04556    85.070547    41.527364   150.079244     0.559907 
frames/TS_45_031_-48.0.mrc           10    -47.99960    85.000000    93.000000     -3.00000 MotionCorr/job002/frames/TS_45_031_-48_0_PS.mrc MotionCorr/job002/frames/TS_45_031_-48_0_EVN.mrc MotionCorr/job002/frames/TS_45_031_-48_0_ODD.mrc MotionCorr/job002/frames/TS_45_031_-48_0.mrc MotionCorr/job002/frames/TS_45_031_-48_0.star     5.234620     0.000000     5.234620 CtfFind/job003/frames/TS_45_031_-48_0_PS.ctf:mrc 31497.833142 32097.963099   119.203125   141.791365     0.097664     9.954133     0.549880     -0.00844    -48.05132    85.079130    22.676415   138.457491     0.649298 
frames/TS_45_030_-45.0.mrc           10    -45.00000    85.000000    90.000000     -3.00000 MotionCorr/job002/frames/TS_45_030_-45_0_PS.mrc MotionCorr/job002/frames/TS_45_030_-45_0_EVN.mrc MotionCorr/job002/frames/TS_45_030_-45_0_ODD.mrc MotionCorr/job002/frames/TS_45_030_-45_0.mrc MotionCorr/job002/frames/TS_45_030_-45_0.star     5.459822     0.000000     5.459822 CtfFind/job003/frames/TS_45_030_-45_0_PS.ctf:mrc 30536.025923 30857.439595   261.048828   121.935014     0.092576    10.238537     0.809930     -0.02816    -45.05339    85.089109    34.510399   133.550767     0.654626 
frames/TS_45_027_-42.0.mrc           10    -41.99990    85.000000    81.000000     -3.00000 MotionCorr/job002/frames/TS_45_027_-42_0_PS.mrc MotionCorr/job002/frames/TS_45_027_-42_0_EVN.mrc MotionCorr/job002/frames/TS_45_027_-42_0_ODD.mrc MotionCorr/job002/frames/TS_45_027_-42_0.mrc MotionCorr/job002/frames/TS_45_027_-42_0.star     4.854730     0.000000     4.854730 CtfFind/job003/frames/TS_45_027_-42_0_PS.ctf:mrc 30654.106974 31157.178657   459.546875   132.319173     0.093988     9.685102     0.443340     0.011030    -42.04532    85.078669    19.636956   132.173442     0.699786 
frames/TS_45_026_-39.0.mrc           10    -38.99970    85.000000    78.000000     -3.00000 MotionCorr/job002/frames/TS_45_026_-39_0_PS.mrc MotionCorr/job002/frames/TS_45_026_-39_0_EVN.mrc MotionCorr/job002/frames/TS_45_026_-39_0_ODD.mrc MotionCorr/job002/frames/TS_45_026_-39_0.mrc MotionCorr/job002/frames/TS_45_026_-39_0.star     5.409872     0.000000     5.409872 CtfFind/job003/frames/TS_45_026_-39_0_PS.ctf:mrc 30373.517286 30834.068272   120.957031   141.014531     0.087948     9.954133     0.472020     0.001561    -39.04502    85.091052    23.717994   123.046293     0.689579 
frames/TS_45_023_-36.0.mrc           10    -35.99960    85.000000    69.000000     -3.00000 MotionCorr/job002/frames/TS_45_023_-36_0_PS.mrc MotionCorr/job002/frames/TS_45_023_-36_0_EVN.mrc MotionCorr/job002/frames/TS_45_023_-36_0_ODD.mrc MotionCorr/job002/frames/TS_45_023_-36_0.mrc MotionCorr/job002/frames/TS_45_023_-36_0.star     4.774667     0.000000     4.774667 CtfFind/job003/frames/TS_45_023_-36_0_PS.ctf:mrc 30528.889881 31069.518490   257.210938   141.860936     0.089998     8.431736     0.687840     0.025379    -36.03075    85.080850    12.436655   124.031893     0.744191 
frames/TS_45_022_-33.0.mrc           10    -32.99950    85.000000    66.000000     -3.00000 MotionCorr/job002/frames/TS_45_022_-33_0_PS.mrc MotionCorr/job002/frames/TS_45_022_-33_0_EVN.mrc MotionCorr/job002/frames/TS_45_022_-33_0_ODD.mrc MotionCorr/job002/frames/TS_45_022_-33_0.mrc MotionCorr/job002/frames/TS_45_022_-33_0.star     5.137040     0.000000     5.137040 CtfFind/job003/frames/TS_45_022_-33_0_PS.ctf:mrc 30448.599017 30737.621842   276.111328   124.300484     0.089506     9.685102     0.575870     0.013180    -33.04358    85.085821    11.436670   116.181416     0.893549 
frames/TS_45_019_-30.0.mrc           10    -29.99980    85.000000    57.000000     -3.00000 MotionCorr/job002/frames/TS_45_019_-30_0_PS.mrc MotionCorr/job002/frames/TS_45_019_-30_0_EVN.mrc MotionCorr/job002/frames/TS_45_019_-30_0_ODD.mrc MotionCorr/job002/frames/TS_45_019_-30_0.mrc MotionCorr/job002/frames/TS_45_019_-30_0.star     4.675718     0.000000     4.675718 CtfFind/job003/frames/TS_45_019_-30_0_PS.ctf:mrc 29964.379559 30964.627194   489.705078   157.770699     0.064687     7.963306     0.592660     0.009909    -30.03195    85.095787     2.976577   118.773161     0.889953 
frames/TS_45_018_-27.0.mrc           10    -27.00020    85.000000    54.000000     -3.00000 MotionCorr/job002/frames/TS_45_018_-27_0_PS.mrc MotionCorr/job002/frames/TS_45_018_-27_0_EVN.mrc MotionCorr/job002/frames/TS_45_018_-27_0_ODD.mrc MotionCorr/job002/frames/TS_45_018_-27_0.mrc MotionCorr/job002/frames/TS_45_018_-27_0.star     4.807011     0.000000     4.807011 CtfFind/job003/frames/TS_45_018_-27_0_PS.ctf:mrc 30301.181287 30620.725167   195.957031    92.036661     0.075174     8.431736     0.363980     0.028912    -27.02099    85.094391     -2.21210   105.646693     1.003962 
frames/TS_45_015_-24.0.mrc           10    -24.00010    85.000000    45.000000     -3.00000 MotionCorr/job002/frames/TS_45_015_-24_0_PS.mrc MotionCorr/job002/frames/TS_45_015_-24_0_EVN.mrc MotionCorr/job002/frames/TS_45_015_-24_0_ODD.mrc MotionCorr/job002/frames/TS_45_015_-24_0.mrc MotionCorr/job002/frames/TS_45_015_-24_0.star     3.667000     0.000000     3.667000 CtfFind/job003/frames/TS_45_015_-24_0_PS.ctf:mrc 30158.780121 30721.719100   303.271484   151.049454     0.057985     8.237903     0.658290     0.031454    -24.01035    85.110348     -0.38787   118.141154     1.055994 
frames/TS_45_014_-21.0.mrc           10    -20.99990    85.000000    42.000000     -3.00000 MotionCorr/job002/frames/TS_45_014_-21_0_PS.mrc MotionCorr/job002/frames/TS_45_014_-21_0_EVN.mrc MotionCorr/job002/frames/TS_45_014_-21_0_ODD.mrc MotionCorr/job002/frames/TS_45_014_-21_0.mrc MotionCorr/job002/frames/TS_45_014_-21_0.star     3.955090     0.000000     3.955090 CtfFind/job003/frames/TS_45_014_-21_0_PS.ctf:mrc 30222.882404 30608.154697   208.822266   138.328407     0.083637     7.166976     0.532380     0.032113    -21.01758    85.116558     -4.51183    99.905351     1.160922 
frames/TS_45_011_-18.0.mrc           10    -18.00180    85.000000    33.000000     -3.00000 MotionCorr/job002/frames/TS_45_011_-18_0_PS.mrc MotionCorr/job002/frames/TS_45_011_-18_0_EVN.mrc MotionCorr/job002/frames/TS_45_011_-18_0_ODD.mrc MotionCorr/job002/frames/TS_45_011_-18_0.mrc MotionCorr/job002/frames/TS_45_011_-18_0.star     3.986319     0.000000     3.986319 CtfFind/job003/frames/TS_45_011_-18_0_PS.ctf:mrc 30185.718784 30576.099702   107.960938   139.448647     0.068736     6.636089     0.897040     0.053249    -18.00317    85.118485     0.672326   111.088520     1.186587 
frames/TS_45_010_-15.0.mrc           10    -15.00370    85.000000    30.000000     -3.00000 MotionCorr/job002/frames/TS_45_010_-15_0_PS.mrc MotionCorr/job002/frames/TS_45_010_-15_0_EVN.mrc MotionCorr/job002/frames/TS_45_010_-15_0_ODD.mrc MotionCorr/job002/frames/TS_45_010_-15_0.mrc MotionCorr/job002/frames/TS_45_010_-15_0.star     3.307242     0.000000     3.307242 CtfFind/job003/frames/TS_45_010_-15_0_PS.ctf:mrc 30183.459210 30638.712198   260.017578   134.908914     0.081297     6.399085     0.697650     0.052189    -15.02793    85.125193     -0.96396    89.458837     1.272218 
frames/TS_45_007_-12.0.mrc           10    -11.99900    85.000000    21.000000     -3.00000 MotionCorr/job002/frames/TS_45_007_-12_0_PS.mrc MotionCorr/job002/frames/TS_45_007_-12_0_EVN.mrc MotionCorr/job002/frames/TS_45_007_-12_0_ODD.mrc MotionCorr/job002/frames/TS_45_007_-12_0.mrc MotionCorr/job002/frames/TS_45_007_-12_0.star     3.492253     0.000000     3.492253 CtfFind/job003/frames/TS_45_007_-12_0_PS.ctf:mrc 30156.994052 30523.504883   316.609375   134.921017     0.065772     6.286821     0.427230     0.041806    -12.01800    85.132804     3.507888   102.637405     1.323133 
frames/TS_45_006_-9.0.mrc           10     -8.99940    85.000000    18.000000     -3.00000 MotionCorr/job002/frames/TS_45_006_-9_0_PS.mrc MotionCorr/job002/frames/TS_45_006_-9_0_EVN.mrc MotionCorr/job002/frames/TS_45_006_-9_0_ODD.mrc MotionCorr/job002/frames/TS_45_006_-9_0.mrc MotionCorr/job002/frames/TS_45_006_-9_0.star     3.925788     0.000000     3.925788 CtfFind/job003/frames/TS_45_006_-9_0_PS.ctf:mrc 30207.059667 30462.686858    82.421875   121.481471     0.063995     5.643288     0.608890     0.023216     -9.01215    85.139629     0.608658    74.476296     1.266295 
frames/TS_45_003_-6.0.mrc           10     -6.00027    85.000000     9.000000     -3.00000 MotionCorr/job002/frames/TS_45_003_-6_0_PS.mrc MotionCorr/job002/frames/TS_45_003_-6_0_EVN.mrc MotionCorr/job002/frames/TS_45_003_-6_0_ODD.mrc MotionCorr/job002/frames/TS_45_003_-6_0.mrc MotionCorr/job002/frames/TS_45_003_-6_0.star     3.170520     0.000000     3.170520 CtfFind/job003/frames/TS_45_003_-6_0_PS.ctf:mrc 30041.559165 30500.909559   430.880859   125.924039     0.067746     5.513058     0.559750     0.021018     -6.01020    85.147234     1.677483    90.154677     1.298434 
frames/TS_45_002_-3.0.mrc           10     -3.00013    85.000000     6.000000     -3.00000 MotionCorr/job002/frames/TS_45_002_-3_0_PS.mrc MotionCorr/job002/frames/TS_45_002_-3_0_EVN.mrc MotionCorr/job002/frames/TS_45_002_-3_0_ODD.mrc MotionCorr/job002/frames/TS_45_002_-3_0.mrc MotionCorr/job002/frames/TS_45_002_-3_0.star     3.314824     0.000000     3.314824 CtfFind/job003/frames/TS_45_002_-3_0_PS.ctf:mrc 30064.162768 30486.129076   365.074219   131.261836     0.069776     6.399085     1.089520     0.032954     -2.98477    85.149584     2.720141    58.140349     1.284832 
frames/TS_45_000_-0.0.mrc           10     -0.00150    85.000000     0.000000     -3.00000 MotionCorr/job002/frames/TS_45_000_-0_0_PS.mrc MotionCorr/job002/frames/TS_45_000_-0_0_EVN.mrc MotionCorr/job002/frames/TS_45_000_-0_0_ODD.mrc MotionCorr/job002/frames/TS_45_000_-0_0.mrc MotionCorr/job002/frames/TS_45_000_-0_0.star     3.233639     1.442666     1.790974 CtfFind/job003/frames/TS_45_000_-0_0_PS.ctf:mrc 29947.537535 30660.922759   786.271484   136.629372     0.052775     6.456735     0.806020     0.027646     0.053063    85.155259     -5.79706     6.507198     1.344499 
frames/TS_45_001_3.0.mrc           10     2.999630    85.000000     3.000000     -3.00000 MotionCorr/job002/frames/TS_45_001_3_0_PS.mrc MotionCorr/job002/frames/TS_45_001_3_0_EVN.mrc MotionCorr/job002/frames/TS_45_001_3_0_ODD.mrc MotionCorr/job002/frames/TS_45_001_3_0.mrc MotionCorr/job002/frames/TS_45_001_3_0.star     3.240772     0.000000     3.240772 CtfFind/job003/frames/TS_45_001_3_0_PS.ctf:mrc 30038.245845 30526.856227   637.558594   141.388383     0.058736     5.733581     0.933930     0.024920     3.033791    85.160372     -4.51379    -47.05781     1.169831 
frames/TS_45_004_6.0.mrc           10     5.997770    85.000000    12.000000     -3.00000 MotionCorr/job002/frames/TS_45_004_6_0_PS.mrc MotionCorr/job002/frames/TS_45_004_6_0_EVN.mrc MotionCorr/job002/frames/TS_45_004_6_0_ODD.mrc MotionCorr/job002/frames/TS_45_004_6_0.mrc MotionCorr/job002/frames/TS_45_004_6_0.star     3.592058     0.000000     3.592058 CtfFind/job003/frames/TS_45_004_6_0_PS.ctf:mrc 29947.866419 30490.514341   532.402344   114.579393     0.076072     5.688076     0.565610     0.031650     6.030581    85.166343     -7.56252    -67.75495     1.198014 
frames/TS_45_005_9.0.mrc           10     8.996400    85.000000    15.000000     -3.00000 MotionCorr/job002/frames/TS_45_005_9_0_PS.mrc MotionCorr/job002/frames/TS_45_005_9_0_EVN.mrc MotionCorr/job002/frames/TS_45_005_9_0_ODD.mrc MotionCorr/job002/frames/TS_45_005_9_0.mrc MotionCorr/job002/frames/TS_45_005_9_0.star     2.902536     0.000000     2.902536 CtfFind/job003/frames/TS_45_005_9_0_PS.ctf:mrc 30143.679904 30466.412240   254.123047   131.379360     0.066596     6.178427     0.502750     0.031391     9.026170    85.171536     -9.14057    -69.26957     1.285919 
frames/TS_45_008_12.0.mrc           10    11.998500    85.000000    24.000000     -3.00000 MotionCorr/job002/frames/TS_45_008_12_0_PS.mrc MotionCorr/job002/frames/TS_45_008_12_0_EVN.mrc MotionCorr/job002/frames/TS_45_008_12_0_ODD.mrc MotionCorr/job002/frames/TS_45_008_12_0.mrc MotionCorr/job002/frames/TS_45_008_12_0.star     2.172041     0.000000     2.172041 CtfFind/job003/frames/TS_45_008_12_0_PS.ctf:mrc 30168.109756 30515.818264    75.744141   123.477692     0.081601     6.125620     0.853420     0.043605    12.034800    85.180132     -9.09640    -81.27810     1.283070 
frames/TS_45_009_15.0.mrc           10    14.999700    85.000000    27.000000     -3.00000 MotionCorr/job002/frames/TS_45_009_15_0_PS.mrc MotionCorr/job002/frames/TS_45_009_15_0_EVN.mrc MotionCorr/job002/frames/TS_45_009_15_0_ODD.mrc MotionCorr/job002/frames/TS_45_009_15_0.mrc MotionCorr/job002/frames/TS_45_009_15_0.star     2.457826     0.000000     2.457826 CtfFind/job003/frames/TS_45_009_15_0_PS.ctf:mrc 30078.028552 30639.483103   354.826172   133.947053     0.074173     5.156098     0.531900     0.034436    15.038809    85.187960     -7.35156    -85.39909     1.260674 
frames/TS_45_012_18.0.mrc           10    17.999800    85.000000    36.000000     -3.00000 MotionCorr/job002/frames/TS_45_012_18_0_PS.mrc MotionCorr/job002/frames/TS_45_012_18_0_EVN.mrc MotionCorr/job002/frames/TS_45_012_18_0_ODD.mrc MotionCorr/job002/frames/TS_45_012_18_0.mrc MotionCorr/job002/frames/TS_45_012_18_0.star     3.005063     0.000000     3.005063 CtfFind/job003/frames/TS_45_012_18_0_PS.ctf:mrc 30186.223636 30482.259888   265.964844   135.661379     0.072552     6.825691     0.830460     0.065489    18.027005    85.189822    -11.37604    -92.70249     1.114291 
frames/TS_45_013_21.0.mrc           10    20.999900    85.000000    39.000000     -3.00000 MotionCorr/job002/frames/TS_45_013_21_0_PS.mrc MotionCorr/job002/frames/TS_45_013_21_0_EVN.mrc MotionCorr/job002/frames/TS_45_013_21_0_ODD.mrc MotionCorr/job002/frames/TS_45_013_21_0.mrc MotionCorr/job002/frames/TS_45_013_21_0.star     2.604872     0.000000     2.604872 CtfFind/job003/frames/TS_45_013_21_0_PS.ctf:mrc 30171.962076 30414.205866   471.238281   131.248078     0.067512     6.761298     0.734180     0.047544    21.030915    85.199680    -11.62680   -107.40225     1.073473 
frames/TS_45_016_24.0.mrc           10    23.999600    85.000000    48.000000     -3.00000 MotionCorr/job002/frames/TS_45_016_24_0_PS.mrc MotionCorr/job002/frames/TS_45_016_24_0_EVN.mrc MotionCorr/job002/frames/TS_45_016_24_0_ODD.mrc MotionCorr/job002/frames/TS_45_016_24_0.mrc MotionCorr/job002/frames/TS_45_016_24_0.star     2.722364     0.000000     2.722364 CtfFind/job003/frames/TS_45_016_24_0_PS.ctf:mrc 30078.947636 30411.261105   430.949219   108.760179     0.085775     7.465600     0.442520     0.060396    24.014640    85.211742     -7.70030   -106.40196     1.051659 
frames/TS_45_017_27.0.mrc           10    26.999700    85.000000    51.000000     -3.00000 MotionCorr/job002/frames/TS_45_017_27_0_PS.mrc MotionCorr/job002/frames/TS_45_017_27_0_EVN.mrc MotionCorr/job002/frames/TS_45_017_27_0_ODD.mrc MotionCorr/job002/frames/TS_45_017_27_0.mrc MotionCorr/job002/frames/TS_45_017_27_0.star     2.314864     0.000000     2.314864 CtfFind/job003/frames/TS_45_017_27_0_PS.ctf:mrc 30002.356513 30477.259440   257.986328   137.215632     0.069649     7.313241     0.702630     0.047916    27.046839    85.224093     -9.17250   -120.52385     0.999803 
frames/TS_45_020_30.0.mrc           10    29.997800    85.000000    60.000000     -3.00000 MotionCorr/job002/frames/TS_45_020_30_0_PS.mrc MotionCorr/job002/frames/TS_45_020_30_0_EVN.mrc MotionCorr/job002/frames/TS_45_020_30_0_ODD.mrc MotionCorr/job002/frames/TS_45_020_30_0.mrc MotionCorr/job002/frames/TS_45_020_30_0.star     3.026604     0.000000     3.026604 CtfFind/job003/frames/TS_45_020_30_0_PS.ctf:mrc 29939.984848 30483.195459   224.128906   152.272853     0.054645     8.431736     0.980070     0.054680    30.033175    85.227305    -12.24285   -121.10784     0.811521 
frames/TS_45_021_33.0.mrc           10    32.998000    85.000000    63.000000     -3.00000 MotionCorr/job002/frames/TS_45_021_33_0_PS.mrc MotionCorr/job002/frames/TS_45_021_33_0_EVN.mrc MotionCorr/job002/frames/TS_45_021_33_0_ODD.mrc MotionCorr/job002/frames/TS_45_021_33_0.mrc MotionCorr/job002/frames/TS_45_021_33_0.star     3.399792     0.000000     3.399792 CtfFind/job003/frames/TS_45_021_33_0_PS.ctf:mrc 30050.243708 30218.510784    75.126953   137.191975     0.090675     7.790191     0.718600     0.058920    33.052970    85.237084    -10.05801   -132.18597     0.888750 
frames/TS_45_024_36.0.mrc           10    35.998100    85.000000    72.000000     -3.00000 MotionCorr/job002/frames/TS_45_024_36_0_PS.mrc MotionCorr/job002/frames/TS_45_024_36_0_EVN.mrc MotionCorr/job002/frames/TS_45_024_36_0_ODD.mrc MotionCorr/job002/frames/TS_45_024_36_0.mrc MotionCorr/job002/frames/TS_45_024_36_0.star     4.101934     0.000000     4.101934 CtfFind/job003/frames/TS_45_024_36_0_PS.ctf:mrc 30083.513105 30599.874046   347.212891   125.347991     0.091184     8.740214     0.584720     0.061606    36.065123    85.239880    -12.49111   -130.06154     0.885823 
frames/TS_45_025_39.0.mrc           10    38.996700    85.000000    75.000000     -3.00000 MotionCorr/job002/frames/TS_45_025_39_0_PS.mrc MotionCorr/job002/frames/TS_45_025_39_0_EVN.mrc MotionCorr/job002/frames/TS_45_025_39_0_ODD.mrc MotionCorr/job002/frames/TS_45_025_39_0.mrc MotionCorr/job002/frames/TS_45_025_39_0.star     4.374145     0.000000     4.374145 CtfFind/job003/frames/TS_45_025_39_0_PS.ctf:mrc 30216.245695 30752.678814   381.396484   146.494981     0.086312     9.817775     0.477290     0.084208    39.074755    85.269636     -0.29288   -136.02548     0.829530 
frames/TS_45_028_42.0.mrc           10    41.996900    85.000000    84.000000     -3.00000 MotionCorr/job002/frames/TS_45_028_42_0_PS.mrc MotionCorr/job002/frames/TS_45_028_42_0_EVN.mrc MotionCorr/job002/frames/TS_45_028_42_0_ODD.mrc MotionCorr/job002/frames/TS_45_028_42_0.mrc MotionCorr/job002/frames/TS_45_028_42_0.star     4.127412     0.000000     4.127412 CtfFind/job003/frames/TS_45_028_42_0_PS.ctf:mrc 30299.810267 30952.837116   242.345703   172.553972     0.100596    10.238537     0.839120     0.060677    42.052002    85.272845    -18.91883   -137.61886     0.797133 
frames/TS_45_029_45.0.mrc           10    44.997000    85.000000    87.000000     -3.00000 MotionCorr/job002/frames/TS_45_029_45_0_PS.mrc MotionCorr/job002/frames/TS_45_029_45_0_EVN.mrc MotionCorr/job002/frames/TS_45_029_45_0_ODD.mrc MotionCorr/job002/frames/TS_45_029_45_0.mrc MotionCorr/job002/frames/TS_45_029_45_0.star     5.118741     0.000000     5.118741 CtfFind/job003/frames/TS_45_029_45_0_PS.ctf:mrc 30301.360762 30638.006534   136.535156   121.519861     0.109358     9.954133     0.542830     0.074215    45.045842    85.283666     -7.66842   -145.85298     0.703245 
frames/TS_45_032_48.0.mrc           10    47.996100    85.000000    96.000000     -3.00000 MotionCorr/job002/frames/TS_45_032_48_0_PS.mrc MotionCorr/job002/frames/TS_45_032_48_0_EVN.mrc MotionCorr/job002/frames/TS_45_032_48_0_ODD.mrc MotionCorr/job002/frames/TS_45_032_48_0.mrc MotionCorr/job002/frames/TS_45_032_48_0.star     5.879206     0.000000     5.879206 CtfFind/job003/frames/TS_45_032_48_0_PS.ctf:mrc 30239.747336 30307.900467    90.181641   134.832143     0.137888    11.026116     0.547000     0.080222    48.093975    85.303526    -24.82562   -153.73713     0.592324 
frames/TS_45_033_51.0.mrc           10    50.996300    85.000000    99.000000     -3.00000 MotionCorr/job002/frames/TS_45_033_51_0_PS.mrc MotionCorr/job002/frames/TS_45_033_51_0_EVN.mrc MotionCorr/job002/frames/TS_45_033_51_0_ODD.mrc MotionCorr/job002/frames/TS_45_033_51_0.mrc MotionCorr/job002/frames/TS_45_033_51_0.star     6.903821     0.000000     6.903821 CtfFind/job003/frames/TS_45_033_51_0_PS.ctf:mrc 30324.308608 30620.479101   308.355469   148.304746     0.122605    11.198400     0.831490     0.124857    51.081754    85.357251     -8.40689   -161.83149     0.506148 
frames/TS_45_036_54.0.mrc           10    53.996900    85.000000   108.000000     -3.00000 MotionCorr/job002/frames/TS_45_036_54_0_PS.mrc MotionCorr/job002/frames/TS_45_036_54_0_EVN.mrc MotionCorr/job002/frames/TS_45_036_54_0_ODD.mrc MotionCorr/job002/frames/TS_45_036_54_0.mrc MotionCorr/job002/frames/TS_45_036_54_0.star     7.638391     0.000000     7.638391 CtfFind/job003/frames/TS_45_036_54_0_PS.ctf:mrc 30108.935138 30269.094874    59.330078   124.568847     0.149805    14.626481     0.689700     0.092991    54.102976    85.349441    -21.31049   -167.96915     0.492506 
frames/TS_45_037_57.0.mrc           10    56.996500    85.000000   111.000000     -3.00000 MotionCorr/job002/frames/TS_45_037_57_0_PS.mrc MotionCorr/job002/frames/TS_45_037_57_0_EVN.mrc MotionCorr/job002/frames/TS_45_037_57_0_ODD.mrc MotionCorr/job002/frames/TS_45_037_57_0.mrc MotionCorr/job002/frames/TS_45_037_57_0.star     9.203906     0.000000     9.203906 CtfFind/job003/frames/TS_45_037_57_0_PS.ctf:mrc 30232.574081 30470.827178    31.580078   153.260674     0.163641    11.198400     0.647150     0.106638    57.091087    85.374685    -11.97552   -175.69350     0.421334 
frames/TS_45_040_60.0.mrc           10    59.995200    85.000000   120.000000     -3.00000 MotionCorr/job002/frames/TS_45_040_60_0_PS.mrc MotionCorr/job002/frames/TS_45_040_60_0_EVN.mrc MotionCorr/job002/frames/TS_45_040_60_0_ODD.mrc MotionCorr/job002/frames/TS_45_040_60_0.mrc MotionCorr/job002/frames/TS_45_040_60_0.star     9.473847     0.000000     9.473847 CtfFind/job003/frames/TS_45_040_60_0_PS.ctf:mrc 30622.611139 30785.564578    78.396484   128.021772     0.168395    13.522596     0.521260     0.073428    60.106503    85.357447    -23.28811   -184.81695     0.501789 
 
