# RELION postprocess; version 5.0-beta-2-commit-a0b145
# --mask mask_fsc.mrc --i Reconstruct/job032/half1.mrc --o PostProcess/job033/postprocess --angpix -1 --pipeline_control PostProcess/job033/ 

# version 50001

data_general

_rlnFinalResolution                               3.650704
_rlnBfactorUsedForSharpening                      0.000000
_rlnUnfilteredMapHalf1                        Reconstruct/job032/half1.mrc
_rlnUnfilteredMapHalf2                        Reconstruct/job032/half2.mrc
_rlnPostprocessedMap                          PostProcess/job033/postprocess.mrc
_rlnParticleBoxFractionSolventMask               10.682012
_rlnMaskName                                  mask_fsc.mrc
_rlnRandomiseFrom                                 7.200000
_rlnPostprocessedMapMasked                    PostProcess/job033/postprocess_masked.mrc
 

# version 50001

data_fsc

loop_ 
_rlnSpectralIndex #1 
_rlnResolution #2 
_rlnAngstromResolution #3 
_rlnFourierShellCorrelationCorrected #4 
_rlnFourierShellCorrelationParticleMaskFraction #5 
_rlnFourierShellCorrelationUnmaskedMaps #6 
_rlnFourierShellCorrelationMaskedMaps #7 
_rlnCorrectedFourierShellCorrelationPhaseRandomizedMaskedMaps #8 
           0     0.001001   999.000000     1.000000     1.000000     1.000000     1.000000     1.000000 
           1     0.003858   259.200012     0.998893     0.999951     0.999474     0.998893     0.998807 
           2     0.007716   129.600006     0.997814     0.999865     0.998564     0.997814     0.997657 
           3     0.011574    86.400004     0.999428     0.999993     0.999920     0.999428     0.999423 
           4     0.015432    64.800003     0.999829     0.999991     0.999902     0.999829     0.999850 
           5     0.019290    51.840002     0.999863     0.999977     0.999758     0.999863     0.999858 
           6     0.023148    43.200002     0.999847     0.999955     0.999523     0.999847     0.999849 
           7     0.027006    37.028573     0.999693     0.999928     0.999229     0.999693     0.999717 
           8     0.030864    32.400002     0.999372     0.999904     0.998974     0.999372     0.999414 
           9     0.034722    28.800001     0.999093     0.999842     0.998311     0.999093     0.999140 
          10     0.038580    25.920001     0.998363     0.999763     0.997469     0.998363     0.998293 
          11     0.042438    23.563637     0.997770     0.999655     0.996331     0.997770     0.997687 
          12     0.046296    21.600001     0.997291     0.999298     0.992555     0.997291     0.997252 
          13     0.050154    19.938462     0.996121     0.998699     0.986280     0.996121     0.996005 
          14     0.054012    18.514287     0.994262     0.999168     0.991182     0.994262     0.994331 
          15     0.057870    17.280001     0.993805     0.998632     0.985574     0.993805     0.993824 
          16     0.061728    16.200001     0.991826     0.997925     0.978272     0.991826     0.991617 
          17     0.065586    15.247060     0.992232     0.998358     0.982730     0.992232     0.992121 
          18     0.069444    14.400001     0.993357     0.998944     0.988836     0.993357     0.993669 
          19     0.073302    13.642106     0.992474     0.998610     0.985350     0.992474     0.992646 
          20     0.077160    12.960001     0.990495     0.997917     0.978186     0.990495     0.990163 
          21     0.081019    12.342858     0.989533     0.997862     0.977621     0.989533     0.989217 
          22     0.084877    11.781819     0.989604     0.997641     0.975365     0.989604     0.989631 
          23     0.088735    11.269566     0.991335     0.997689     0.975858     0.991335     0.991631 
          24     0.092593    10.800001     0.991944     0.998326     0.982407     0.991944     0.992271 
          25     0.096451    10.368000     0.989296     0.998099     0.980065     0.989296     0.989479 
          26     0.100309     9.969231     0.984901     0.995344     0.952412     0.984901     0.984620 
          27     0.104167     9.600000     0.982696     0.996597     0.964807     0.982696     0.982189 
          28     0.108025     9.257143     0.982468     0.996194     0.960785     0.982468     0.982095 
          29     0.111883     8.937931     0.978976     0.993186     0.931718     0.978976     0.978048 
          30     0.115741     8.640000     0.969342     0.988845     0.892456     0.969342     0.968299 
          31     0.119599     8.361291     0.962867     0.988285     0.887612     0.962867     0.963484 
          32     0.123457     8.100000     0.956192     0.988327     0.887969     0.956192     0.956928 
          33     0.127315     7.854546     0.944265     0.979711     0.818860     0.944265     0.944978 
          34     0.131173     7.623530     0.935153     0.980839     0.827350     0.935153     0.935210 
          35     0.135031     7.405715     0.928948     0.981914     0.835596     0.928948     0.916941 
          36     0.138889     7.200000     0.909741     0.971795     0.763339     0.909741     0.835042 
          37     0.142747     7.005406     0.877453     0.945288     0.617948     0.877453     0.624916 
          38     0.146605     6.821053     0.739428     0.938018     0.586220     0.851055     0.428393 
          39     0.150463     6.646154     0.776415     0.949820     0.639245     0.845189     0.307595 
          40     0.154321     6.480000     0.790208     0.938183     0.586909     0.845801     0.264992 
          41     0.158179     6.321952     0.778516     0.937437     0.583807     0.826499     0.216640 
          42     0.162037     6.171429     0.753077     0.923544     0.530697     0.797191     0.178655 
          43     0.165895     6.027907     0.749945     0.906135     0.474714     0.788972     0.156073 
          44     0.169753     5.890909     0.744870     0.916980     0.508360     0.773878     0.113698 
          45     0.173611     5.760000     0.722338     0.898277     0.452558     0.759158     0.132608 
          46     0.177469     5.634783     0.740444     0.898301     0.452625     0.764576     0.092975 
          47     0.181327     5.514894     0.735412     0.888416     0.427049     0.752353     0.064026 
          48     0.185185     5.400000     0.729886     0.896353     0.447392     0.744591     0.054442 
          49     0.189043     5.289796     0.747413     0.904641     0.470367     0.757074     0.038248 
          50     0.192901     5.184000     0.747253     0.896798     0.448578     0.757650     0.041137 
          51     0.196759     5.082353     0.734908     0.906643     0.476207     0.746056     0.042052 
          52     0.200617     4.984616     0.719846     0.886869     0.423258     0.732550     0.045346 
          53     0.204475     4.890566     0.704476     0.865606     0.376153     0.715191     0.036260 
          54     0.208333     4.800000     0.687878     0.863489     0.371920     0.694824     0.022255 
          55     0.212191     4.712727     0.670365     0.863441     0.371826     0.677457     0.021515 
          56     0.216049     4.628572     0.643876     0.835407     0.322104     0.655122     0.031579 
          57     0.219907     4.547369     0.615803     0.842211     0.333190     0.632962     0.044660 
          58     0.223765     4.468966     0.591455     0.801085     0.273791     0.613762     0.054601 
          59     0.227623     4.393221     0.543709     0.769326     0.237932     0.565731     0.048263 
          60     0.231481     4.320000     0.490932     0.751389     0.220540     0.508163     0.033848 
          61     0.235339     4.249181     0.476682     0.631748     0.138377     0.479646     0.005663 
          62     0.239198     4.180645     0.473214     0.644974     0.145351     0.469749     -0.00658 
          63     0.243056     4.114286     0.424814     0.654805     0.150801     0.431270     0.011224 
          64     0.246914     4.050000     0.382009     0.611280     0.128323     0.386520     0.007299 
          65     0.250772     3.987692     0.352768     0.441075     0.068794     0.351275     -0.00231 
          66     0.254630     3.927273     0.304167     0.413265     0.061859     0.305759     0.002288 
          67     0.258488     3.868657     0.248176     0.381438     0.054577     0.255885     0.010253 
          68     0.262346     3.811765     0.198046     0.401217     0.059025     0.207776     0.012132 
          69     0.266204     3.756522     0.191653     0.387396     0.055891     0.198707     0.008727 
          70     0.270062     3.702857     0.191555     0.292028     0.037179     0.189985     -0.00194 
          71     0.273920     3.650704     0.149302     0.237002     0.028257     0.139896     -0.01106 
          72     0.277778     3.600000     0.114516     0.239580     0.028650     0.103091     -0.01290 
          73     0.281636     3.550685     0.093463     0.258831     0.031657     0.085140     -0.00918 
          74     0.285494     3.502703     0.053064     0.058772     0.005812     0.047368     -0.00602 
          75     0.289352     3.456000     0.033721     0.197793     0.022561     0.028777     -0.00512 
          76     0.293210     3.410526     0.044573     0.211286     0.024465     0.035775     -0.00921 
          77     0.297068     3.366234     0.031454     -0.08271     -0.00720     0.023589     -0.00812 
          78     0.300926     3.323077     0.024361     -0.08079     -0.00705     0.025695     0.001368 
          79     0.304784     3.281013     0.016258     0.031733     0.003059     0.022278     0.006119 
          80     0.308642     3.240000     0.010847     0.072217     0.007234     0.013613     0.002796 
          81     0.312500     3.200000     0.006053     -0.05687     -0.00506     0.009935     0.003905 
          82     0.316358     3.160976     0.010332     0.023682     0.002266     0.016359     0.006091 
          83     0.320216     3.122892     0.024024     0.043817     0.004272     0.031175     0.007327 
          84     0.324074     3.085714     0.011140     0.062936     0.006248     0.014132     0.003026 
          85     0.327932     3.049412     -0.01503     -0.05987     -0.00532     -0.01062     0.004344 
          86     0.331790     3.013954     -0.00436     -0.10170     -0.00872     -0.00159     0.002760 
          87     0.335648     2.979310 9.342264e-04     -0.20845     -0.01641     0.006818     0.005889 
          88     0.339506     2.945455 -1.65107e-04     -0.08890     -0.00770     0.010940     0.011104 
          89     0.343364     2.912360     0.008767     -0.04148     -0.00374     0.020347     0.011683 
          90     0.347222     2.880000     0.012333     -0.00216 -2.01770e-04     0.020040     0.007804 
          91     0.351080     2.848352     0.015714     -0.00813 -7.55580e-04     0.022654     0.007051 
          92     0.354938     2.817391     0.040478     0.102389     0.010566     0.038686     -0.00187 
          93     0.358796     2.787097     0.038901 -2.92479e-04 -2.73733e-05     0.027178     -0.01220 
          94     0.362654     2.757447     0.016106     -0.01179     -0.00109     0.008401     -0.00783 
          95     0.366512     2.728421     0.018722     -0.06374     -0.00564     0.016465     -0.00230 
          96     0.370370     2.700000     0.026970     0.110443     0.011489     0.028707     0.001786 
 

# version 50001

data_guinier

loop_ 
_rlnResolutionSquared #1 
_rlnLogAmplitudesOriginal #2 
_rlnLogAmplitudesWeighted #3 
    0.000000    -26.98421    -26.98421 
1.488435e-05     -4.71430     -4.71457 
5.953741e-05     -5.81424     -5.81479 
1.339592e-04     -5.93488     -5.93503 
2.381496e-04     -5.88755     -5.88759 
3.721088e-04     -6.29982     -6.29985 
5.358367e-04     -6.74266     -6.74270 
7.293333e-04     -7.04513     -7.04521 
9.525986e-04     -7.15046     -7.15062 
    0.001206     -7.36575     -7.36598 
    0.001488     -7.39353     -7.39394 
    0.001801     -7.61808     -7.61863 
    0.002143     -7.93589     -7.93656 
    0.002515     -8.10591     -8.10688 
    0.002917     -7.89945     -7.90089 
    0.003349     -7.96514     -7.96670 
    0.003810     -8.04676     -8.04881 
    0.004302     -8.11053     -8.11248 
    0.004823     -8.01191     -8.01358 
    0.005373     -7.99221     -7.99411 
    0.005954     -7.95757     -7.95997 
    0.006564     -7.98743     -7.99006 
    0.007204     -8.07249     -8.07511 
    0.007874     -8.02457     -8.02675 
    0.008573     -7.87136     -7.87339 
    0.009303     -7.90810     -7.91080 
    0.010062     -8.20119     -8.20500 
    0.010851     -8.10377     -8.10815 
    0.011669     -8.15119     -8.15563 
    0.012518     -8.34009     -8.34543 
    0.013396     -8.42764     -8.43549 
    0.014304     -8.47792     -8.48747 
    0.015242     -8.53906     -8.55038 
    0.016209     -8.67418     -8.68873 
    0.017206     -8.65312     -8.67016 
    0.018233     -8.64690     -8.66567 
    0.019290     -8.81401     -8.83822 
    0.020377     -8.98592     -9.01967 
    0.021493     -9.02717     -9.10831 
    0.022639     -8.95410     -9.02136 
    0.023815     -8.99715     -9.05947 
    0.025021     -8.98727     -9.05377 
    0.026256     -9.05775     -9.13366 
    0.027521     -9.11702     -9.19412 
    0.028816     -9.05137     -9.13041 
    0.030141     -9.08310     -9.17100 
    0.031495     -9.05495     -9.13570 
    0.032880     -9.06959     -9.15230 
    0.034294     -9.02636     -9.11125 
    0.035737     -8.98660     -9.06466 
    0.037211     -8.98127     -9.05940 
    0.038714     -8.92801     -9.01091 
    0.040247     -8.96652     -9.05543 
    0.041810     -8.99093     -9.08614 
    0.043403     -8.99062     -9.09286 
    0.045025     -8.98968     -9.09959 
    0.046677     -9.03584     -9.15792 
    0.048359     -9.01804     -9.15379 
    0.050071     -9.07281     -9.22115 
    0.051812     -9.10218     -9.27737 
    0.053584     -9.11756     -9.32641 
    0.055385     -9.18837     -9.40715 
    0.057215     -9.17241     -9.39366 
    0.059076     -9.15010     -9.40860 
    0.060966     -9.16089     -9.45724 
    0.062886     -9.21450     -9.53997 
    0.064836     -9.23337     -9.61467 
    0.066816     -9.22301     -9.68409 
    0.068825     -9.23185     -9.78525 
    0.070864     -9.22237     -9.78950 
    0.072933     -9.23538     -9.80272 
    0.075032     -9.21781     -9.89171 
    0.077160     -9.21824    -10.00940 
    0.079319     -9.21028    -10.09348 
    0.081507     -9.23405    -10.38145 
    0.083724     -9.20876    -10.57359 
    0.085972     -9.20220    -10.43274 
    0.088249     -9.21589    -10.61442 
    0.090556     -9.21425    -10.73710 
    0.092893     -9.20873    -10.92981 
    0.095260     -9.20341    -11.12415 
    0.097656     -9.20586    -11.41587 
    0.100082     -9.19140    -11.13623 
    0.102538     -9.18936    -10.71901 
    0.105024     -9.18625    -11.09381 
    0.107539     -9.19383    -99.00000 
    0.110085     -9.18818    -99.00000 
    0.112660     -9.18824    -99.00000 
    0.115264     -9.17399    -99.00000 
    0.117899     -9.16258    -99.00000 
    0.120563     -9.15674    -99.00000 
    0.123257     -9.15011    -99.00000 
    0.125981     -9.12675    -99.00000 
    0.128735     -9.13974    -99.00000 
    0.131518     -9.14085    -99.00000 
    0.134331     -9.14784    -99.00000 
    0.137174     -9.40652    -99.00000 
 
