
# version 50001

data_TS_03

loop_ 
_rlnMicrographMovieName #1 
_rlnTomoTiltMovieFrameCount #2 
_rlnTomoNominalStageTiltAngle #3 
_rlnTomoNominalTiltAxisAngle #4 
_rlnMicrographPreExposure #5 
_rlnTomoNominalDefocus #6 
_rlnCtfPowerSpectrum #7 
_rlnMicrographNameEven #8 
_rlnMicrographNameOdd #9 
_rlnMicrographName #10 
_rlnMicrographMetadata #11 
_rlnAccumMotionTotal #12 
_rlnAccumMotionEarly #13 
_rlnAccumMotionLate #14 
_rlnCtfImage #15 
_rlnDefocusU #16 
_rlnDefocusV #17 
_rlnCtfAstigmatism #18 
_rlnDefocusAngle #19 
_rlnCtfFigureOfMerit #20 
_rlnCtfMaxResolution #21 
_rlnCtfIceRingDensity #22 
_rlnTomoXTilt #23 
_rlnTomoYTilt #24 
_rlnTomoZRot #25 
_rlnTomoXShiftAngst #26 
_rlnTomoYShiftAngst #27 
_rlnCtfScalefactor #28 
frames/TS_03_038_-57.0.mrc            8    -56.99900    85.000000   114.000000     -1.50000 MotionCorr/job002/frames/TS_03_038_-57_0_PS.mrc MotionCorr/job002/frames/TS_03_038_-57_0_EVN.mrc MotionCorr/job002/frames/TS_03_038_-57_0_ODD.mrc MotionCorr/job002/frames/TS_03_038_-57_0.mrc MotionCorr/job002/frames/TS_03_038_-57_0.star    96.111993     0.000000    96.111993 CtfFind/job003/frames/TS_03_038_-57_0_PS.ctf:mrc 15649.856774 16147.800607    91.772461   128.612573     0.015304    25.000000     0.530370     -0.12242    -57.25165    85.194698   -238.59063   -132.89851     0.484054 
frames/TS_03_035_-54.0.mrc            8    -53.99890    85.000000   105.000000     -1.50000 MotionCorr/job002/frames/TS_03_035_-54_0_PS.mrc MotionCorr/job002/frames/TS_03_035_-54_0_EVN.mrc MotionCorr/job002/frames/TS_03_035_-54_0_ODD.mrc MotionCorr/job002/frames/TS_03_035_-54_0.mrc MotionCorr/job002/frames/TS_03_035_-54_0.star    39.495946     0.000000    39.495946 CtfFind/job003/frames/TS_03_035_-54_0_PS.ctf:mrc 14616.871027 15474.392759    57.083984   124.911109     0.047231    25.000000     0.541930     -0.09512    -54.19894    85.205481    -62.37474   -110.51051     0.653687 
frames/TS_03_034_-51.0.mrc            8    -50.99930    85.000000   102.000000     -1.50000 MotionCorr/job002/frames/TS_03_034_-51_0_PS.mrc MotionCorr/job002/frames/TS_03_034_-51_0_EVN.mrc MotionCorr/job002/frames/TS_03_034_-51_0_ODD.mrc MotionCorr/job002/frames/TS_03_034_-51_0.mrc MotionCorr/job002/frames/TS_03_034_-51_0.star     8.906427     0.000000     8.906427 CtfFind/job003/frames/TS_03_034_-51_0_PS.ctf:mrc 12321.871446 13804.395484   539.439453   138.613095     0.074001    25.000000     0.540480     -0.22707    -51.14423    85.231411    15.660617    -53.72524     0.697399 
frames/TS_03_031_-48.0.mrc            8    -47.99910    85.000000    93.000000     -1.50000 MotionCorr/job002/frames/TS_03_031_-48_0_PS.mrc MotionCorr/job002/frames/TS_03_031_-48_0_EVN.mrc MotionCorr/job002/frames/TS_03_031_-48_0_ODD.mrc MotionCorr/job002/frames/TS_03_031_-48_0.mrc MotionCorr/job002/frames/TS_03_031_-48_0.star     5.301389     0.000000     5.301389 CtfFind/job003/frames/TS_03_031_-48_0_PS.ctf:mrc 12565.213422 13652.218910   424.787109   141.592449     0.070006     8.634910     0.616740     -0.17994    -48.14653    85.243451    17.101537    -58.15434     0.743329 
frames/TS_03_030_-45.0.mrc            8    -44.99900    85.000000    90.000000     -1.50000 MotionCorr/job002/frames/TS_03_030_-45_0_PS.mrc MotionCorr/job002/frames/TS_03_030_-45_0_EVN.mrc MotionCorr/job002/frames/TS_03_030_-45_0_ODD.mrc MotionCorr/job002/frames/TS_03_030_-45_0.mrc MotionCorr/job002/frames/TS_03_030_-45_0.star     4.361125     0.000000     4.361125 CtfFind/job003/frames/TS_03_030_-45_0_PS.ctf:mrc 13784.555112 14949.755192   521.800781   141.883834     0.079347    10.094332     0.768970     -0.09042    -45.11116    85.238154    26.777528    -24.17837     0.747362 
frames/TS_03_027_-42.0.mrc            8    -41.99940    85.000000    81.000000     -1.50000 MotionCorr/job002/frames/TS_03_027_-42_0_PS.mrc MotionCorr/job002/frames/TS_03_027_-42_0_EVN.mrc MotionCorr/job002/frames/TS_03_027_-42_0_ODD.mrc MotionCorr/job002/frames/TS_03_027_-42_0.mrc MotionCorr/job002/frames/TS_03_027_-42_0.star     3.259830     0.000000     3.259830 CtfFind/job003/frames/TS_03_027_-42_0_PS.ctf:mrc 13119.497803 14952.706847   890.588867   138.950646     0.072639     9.685102     0.694580     -0.03537    -42.17876    85.194694    20.925731    -32.26468     0.805256 
frames/TS_03_026_-39.0.mrc            8    -38.99870    85.000000    78.000000     -1.50000 MotionCorr/job002/frames/TS_03_026_-39_0_PS.mrc MotionCorr/job002/frames/TS_03_026_-39_0_EVN.mrc MotionCorr/job002/frames/TS_03_026_-39_0_ODD.mrc MotionCorr/job002/frames/TS_03_026_-39_0.mrc MotionCorr/job002/frames/TS_03_026_-39_0.star     3.213115     0.000000     3.213115 CtfFind/job003/frames/TS_03_026_-39_0_PS.ctf:mrc 13922.322806 15127.644225   603.708984   146.974962     0.087992    10.696979     0.975220     -0.07625    -39.13931    85.220603    26.278549     -3.24296     0.842064 
frames/TS_03_023_-36.0.mrc            8    -35.99860    85.000000    69.000000     -1.50000 MotionCorr/job002/frames/TS_03_023_-36_0_PS.mrc MotionCorr/job002/frames/TS_03_023_-36_0_EVN.mrc MotionCorr/job002/frames/TS_03_023_-36_0_ODD.mrc MotionCorr/job002/frames/TS_03_023_-36_0.mrc MotionCorr/job002/frames/TS_03_023_-36_0.star     3.701328     0.000000     3.701328 CtfFind/job003/frames/TS_03_023_-36_0_PS.ctf:mrc 13886.521310 14698.505880   275.329102   143.911630     0.076480     9.954133     0.493570     -0.05146    -36.11182    85.203648    18.001020    -12.92510     0.876416 
frames/TS_03_022_-33.0.mrc            8    -32.99900    85.000000    66.000000     -1.50000 MotionCorr/job002/frames/TS_03_022_-33_0_PS.mrc MotionCorr/job002/frames/TS_03_022_-33_0_EVN.mrc MotionCorr/job002/frames/TS_03_022_-33_0_ODD.mrc MotionCorr/job002/frames/TS_03_022_-33_0.mrc MotionCorr/job002/frames/TS_03_022_-33_0.star     3.010083     0.000000     3.010083 CtfFind/job003/frames/TS_03_022_-33_0_PS.ctf:mrc 13766.712195 14975.757064   693.416016   133.521577     0.085505     9.188430     0.757130     -0.06895    -33.08613    85.197100    21.303440    15.367235     0.953912 
frames/TS_03_019_-30.0.mrc            8    -29.99930    85.000000    57.000000     -1.50000 MotionCorr/job002/frames/TS_03_019_-30_0_PS.mrc MotionCorr/job002/frames/TS_03_019_-30_0_EVN.mrc MotionCorr/job002/frames/TS_03_019_-30_0_ODD.mrc MotionCorr/job002/frames/TS_03_019_-30_0.mrc MotionCorr/job002/frames/TS_03_019_-30_0.star     2.650273     0.000000     2.650273 CtfFind/job003/frames/TS_03_019_-30_0_PS.ctf:mrc 13703.879563 14958.834922   515.045898   146.946354     0.079407     8.848118     0.717920     -0.05784    -30.09098    85.219224    12.548318     4.672410     1.005210 
frames/TS_03_018_-27.0.mrc            8    -26.99870    85.000000    54.000000     -1.50000 MotionCorr/job002/frames/TS_03_018_-27_0_PS.mrc MotionCorr/job002/frames/TS_03_018_-27_0_EVN.mrc MotionCorr/job002/frames/TS_03_018_-27_0_ODD.mrc MotionCorr/job002/frames/TS_03_018_-27_0.mrc MotionCorr/job002/frames/TS_03_018_-27_0.star     2.942248     0.000000     2.942248 CtfFind/job003/frames/TS_03_018_-27_0_PS.ctf:mrc 13675.516464 14807.363919   774.749023   153.848022     0.072302     8.532114     0.897310     -0.01522    -27.08528    85.209270    17.496534    35.212480     1.025294 
frames/TS_03_015_-24.0.mrc            8    -23.99860    85.000000    45.000000     -1.50000 MotionCorr/job002/frames/TS_03_015_-24_0_PS.mrc MotionCorr/job002/frames/TS_03_015_-24_0_EVN.mrc MotionCorr/job002/frames/TS_03_015_-24_0_ODD.mrc MotionCorr/job002/frames/TS_03_015_-24_0.mrc MotionCorr/job002/frames/TS_03_015_-24_0.star     2.726784     0.000000     2.726784 CtfFind/job003/frames/TS_03_015_-24_0_PS.ctf:mrc 13810.501399 14738.765063   554.796875   145.325738     0.081781     7.026447     0.592440     -0.00512    -24.07740    85.205234    10.389863    22.647257     1.189256 
frames/TS_03_014_-21.0.mrc            8    -20.99890    85.000000    42.000000     -1.50000 MotionCorr/job002/frames/TS_03_014_-21_0_PS.mrc MotionCorr/job002/frames/TS_03_014_-21_0_EVN.mrc MotionCorr/job002/frames/TS_03_014_-21_0_ODD.mrc MotionCorr/job002/frames/TS_03_014_-21_0.mrc MotionCorr/job002/frames/TS_03_014_-21_0.star     2.414818     0.000000     2.414818 CtfFind/job003/frames/TS_03_014_-21_0_PS.ctf:mrc 14139.714030 14691.519334   566.877930   144.112674     0.080299     6.286821     0.662610     0.025665    -21.07310    85.207299    19.117620    53.046323     1.287820 
frames/TS_03_011_-18.0.mrc            8    -17.99880    85.000000    33.000000     -1.50000 MotionCorr/job002/frames/TS_03_011_-18_0_PS.mrc MotionCorr/job002/frames/TS_03_011_-18_0_EVN.mrc MotionCorr/job002/frames/TS_03_011_-18_0_ODD.mrc MotionCorr/job002/frames/TS_03_011_-18_0.mrc MotionCorr/job002/frames/TS_03_011_-18_0.star     2.602850     0.000000     2.602850 CtfFind/job003/frames/TS_03_011_-18_0_PS.ctf:mrc 14280.158699 14923.999534   726.788086   145.094840     0.079273     7.026447     0.824200     0.008150    -18.08214    85.217333    14.304322    36.731714     1.330748 
frames/TS_03_010_-15.0.mrc            8    -14.99920    85.000000    30.000000     -1.50000 MotionCorr/job002/frames/TS_03_010_-15_0_PS.mrc MotionCorr/job002/frames/TS_03_010_-15_0_EVN.mrc MotionCorr/job002/frames/TS_03_010_-15_0_ODD.mrc MotionCorr/job002/frames/TS_03_010_-15_0.mrc MotionCorr/job002/frames/TS_03_010_-15_0.star     3.136864     0.000000     3.136864 CtfFind/job003/frames/TS_03_010_-15_0_PS.ctf:mrc 14344.734112 14762.867304   394.884766   139.153396     0.089302     6.022669     0.844510     0.026587    -15.05354    85.222146    19.509543    62.779582     1.364556 
frames/TS_03_007_-12.0.mrc            8    -11.99800    85.000000    21.000000     -1.50000 MotionCorr/job002/frames/TS_03_007_-12_0_PS.mrc MotionCorr/job002/frames/TS_03_007_-12_0_EVN.mrc MotionCorr/job002/frames/TS_03_007_-12_0_ODD.mrc MotionCorr/job002/frames/TS_03_007_-12_0.mrc MotionCorr/job002/frames/TS_03_007_-12_0.star     2.313651     0.000000     2.313651 CtfFind/job003/frames/TS_03_007_-12_0_PS.ctf:mrc 14253.056673 14851.945795   359.812500   142.121628     0.078866     5.733581     0.805790     0.003197    -12.05519    85.229674    14.740729    53.499361     1.490203 
frames/TS_03_006_-9.0.mrc            8     -8.99890    85.000000    18.000000     -1.50000 MotionCorr/job002/frames/TS_03_006_-9_0_PS.mrc MotionCorr/job002/frames/TS_03_006_-9_0_EVN.mrc MotionCorr/job002/frames/TS_03_006_-9_0_ODD.mrc MotionCorr/job002/frames/TS_03_006_-9_0.mrc MotionCorr/job002/frames/TS_03_006_-9_0.star     2.740379     0.000000     2.740379 CtfFind/job003/frames/TS_03_006_-9_0_PS.ctf:mrc 14352.283774 14872.696617   464.789062   144.205854     0.076235     5.429527     0.739670     -0.00819     -9.03401    85.233637    18.521455    49.847562     1.551583 
frames/TS_03_003_-6.0.mrc            8     -5.99827    85.000000     9.000000     -1.50000 MotionCorr/job002/frames/TS_03_003_-6_0_PS.mrc MotionCorr/job002/frames/TS_03_003_-6_0_EVN.mrc MotionCorr/job002/frames/TS_03_003_-6_0_ODD.mrc MotionCorr/job002/frames/TS_03_003_-6_0.mrc MotionCorr/job002/frames/TS_03_003_-6_0.star     2.179822     0.000000     2.179822 CtfFind/job003/frames/TS_03_003_-6_0_PS.ctf:mrc 14387.995169 14877.936278   423.504883   143.877508     0.061769     5.193461     0.531500     -0.02678     -6.04106    85.243582    14.045803    53.701413     1.619783 
frames/TS_03_002_-3.0.mrc            8     -2.99863    85.000000     6.000000     -1.50000 MotionCorr/job002/frames/TS_03_002_-3_0_PS.mrc MotionCorr/job002/frames/TS_03_002_-3_0_EVN.mrc MotionCorr/job002/frames/TS_03_002_-3_0_ODD.mrc MotionCorr/job002/frames/TS_03_002_-3_0.mrc MotionCorr/job002/frames/TS_03_002_-3_0.star     1.817747     0.000000     1.817747 CtfFind/job003/frames/TS_03_002_-3_0_PS.ctf:mrc 14437.182806 14870.942408   554.088867   146.245972     0.066306     4.977066     0.697890     -0.03532     -3.04975    85.246183    14.616415    36.667826     1.580469 
frames/TS_03_000_0.0.mrc            8     0.001500    85.000000     0.000000     -1.50000 MotionCorr/job002/frames/TS_03_000_0_0_PS.mrc MotionCorr/job002/frames/TS_03_000_0_0_EVN.mrc MotionCorr/job002/frames/TS_03_000_0_0_ODD.mrc MotionCorr/job002/frames/TS_03_000_0_0.mrc MotionCorr/job002/frames/TS_03_000_0_0.star     4.072953     2.389154     1.683799 CtfFind/job003/frames/TS_03_000_0_0_PS.ctf:mrc 14442.118847 14898.526527   655.861328   147.249173     0.061578     4.875494     0.773580     -0.09362     -0.05521    85.255458    16.059129    50.987266     1.602219 
frames/TS_03_001_3.0.mrc            8     3.001130    85.000000     3.000000     -1.50000 MotionCorr/job002/frames/TS_03_001_3_0_PS.mrc MotionCorr/job002/frames/TS_03_001_3_0_EVN.mrc MotionCorr/job002/frames/TS_03_001_3_0_ODD.mrc MotionCorr/job002/frames/TS_03_001_3_0.mrc MotionCorr/job002/frames/TS_03_001_3_0.star     2.934302     0.000000     2.934302 CtfFind/job003/frames/TS_03_001_3_0_PS.ctf:mrc 14467.061801 14897.383968   414.947266   142.874001     0.074139     5.733581     0.409340     -0.05991     2.962409    85.263234    16.640795    69.266266     1.573977 
frames/TS_03_004_6.0.mrc            8     6.000760    85.000000    12.000000     -1.50000 MotionCorr/job002/frames/TS_03_004_6_0_PS.mrc MotionCorr/job002/frames/TS_03_004_6_0_EVN.mrc MotionCorr/job002/frames/TS_03_004_6_0_ODD.mrc MotionCorr/job002/frames/TS_03_004_6_0.mrc MotionCorr/job002/frames/TS_03_004_6_0.star     2.497861     0.000000     2.497861 CtfFind/job003/frames/TS_03_004_6_0_PS.ctf:mrc 14398.192367 14830.044169   293.609375   144.939663     0.075577     5.429527     0.752080     -0.00627     6.019130    85.262855    12.977759    45.067462     1.560983 
frames/TS_03_005_9.0.mrc            8     9.001400    85.000000    15.000000     -1.50000 MotionCorr/job002/frames/TS_03_005_9_0_PS.mrc MotionCorr/job002/frames/TS_03_005_9_0_EVN.mrc MotionCorr/job002/frames/TS_03_005_9_0_ODD.mrc MotionCorr/job002/frames/TS_03_005_9_0.mrc MotionCorr/job002/frames/TS_03_005_9_0.star     1.609453     0.000000     1.609453 CtfFind/job003/frames/TS_03_005_9_0_PS.ctf:mrc 14405.344635 14840.693486   381.895508   141.866164     0.066536     6.456735     0.729540     0.029186     9.038870    85.270867     8.459524    56.853696     1.498574 
frames/TS_03_008_12.0.mrc            8    12.000500    85.000000    24.000000     -1.50000 MotionCorr/job002/frames/TS_03_008_12_0_PS.mrc MotionCorr/job002/frames/TS_03_008_12_0_EVN.mrc MotionCorr/job002/frames/TS_03_008_12_0_ODD.mrc MotionCorr/job002/frames/TS_03_008_12_0.mrc MotionCorr/job002/frames/TS_03_008_12_0.star     3.120055     0.000000     3.120055 CtfFind/job003/frames/TS_03_008_12_0_PS.ctf:mrc 14371.965348 14846.817698   497.391602   138.303754     0.086996     6.232153     0.920330     0.027486    12.062089    85.275908     8.015131    31.981070     1.413916 
frames/TS_03_009_15.0.mrc            8    15.000700    85.000000    27.000000     -1.50000 MotionCorr/job002/frames/TS_03_009_15_0_PS.mrc MotionCorr/job002/frames/TS_03_009_15_0_EVN.mrc MotionCorr/job002/frames/TS_03_009_15_0_ODD.mrc MotionCorr/job002/frames/TS_03_009_15_0.mrc MotionCorr/job002/frames/TS_03_009_15_0.star     2.301584     0.000000     2.301584 CtfFind/job003/frames/TS_03_009_15_0_PS.ctf:mrc 14436.692302 14873.511754   196.554688   147.893227     0.071106     6.575207     0.769530     0.050515    15.052880    85.286293    10.638925    42.999415     1.380757 
frames/TS_03_012_18.0.mrc            8    18.000300    85.000000    36.000000     -1.50000 MotionCorr/job002/frames/TS_03_012_18_0_PS.mrc MotionCorr/job002/frames/TS_03_012_18_0_EVN.mrc MotionCorr/job002/frames/TS_03_012_18_0_ODD.mrc MotionCorr/job002/frames/TS_03_012_18_0.mrc MotionCorr/job002/frames/TS_03_012_18_0.star     2.646684     0.000000     2.646684 CtfFind/job003/frames/TS_03_012_18_0_PS.ctf:mrc 14376.095550 14842.190924   275.634766   145.178486     0.059765     6.761298     0.713570     0.071884    18.067796    85.298137     6.122974    23.994477     1.319583 
frames/TS_03_013_21.0.mrc            8    21.000900    85.000000    39.000000     -1.50000 MotionCorr/job002/frames/TS_03_013_21_0_PS.mrc MotionCorr/job002/frames/TS_03_013_21_0_EVN.mrc MotionCorr/job002/frames/TS_03_013_21_0_ODD.mrc MotionCorr/job002/frames/TS_03_013_21_0.mrc MotionCorr/job002/frames/TS_03_013_21_0.star     2.705364     0.000000     2.705364 CtfFind/job003/frames/TS_03_013_21_0_PS.ctf:mrc 14602.371890 14941.965357   179.557617   161.766045     0.066225     7.166976     0.886440     0.090518    21.050965    85.310783     7.681710    31.498975     1.229981 
frames/TS_03_016_24.0.mrc            8    24.000600    85.000000    48.000000     -1.50000 MotionCorr/job002/frames/TS_03_016_24_0_PS.mrc MotionCorr/job002/frames/TS_03_016_24_0_EVN.mrc MotionCorr/job002/frames/TS_03_016_24_0_ODD.mrc MotionCorr/job002/frames/TS_03_016_24_0.mrc MotionCorr/job002/frames/TS_03_016_24_0.star     2.614310     0.000000     2.614310 CtfFind/job003/frames/TS_03_016_24_0_PS.ctf:mrc 14401.576901 14905.282016   355.435547   153.538744     0.070183     7.963306     0.569710     0.081723    24.084025    85.314084     5.388345    27.926989     1.148919 
frames/TS_03_017_27.0.mrc            8    27.000700    85.000000    51.000000     -1.50000 MotionCorr/job002/frames/TS_03_017_27_0_PS.mrc MotionCorr/job002/frames/TS_03_017_27_0_EVN.mrc MotionCorr/job002/frames/TS_03_017_27_0_ODD.mrc MotionCorr/job002/frames/TS_03_017_27_0.mrc MotionCorr/job002/frames/TS_03_017_27_0.star     3.655325     0.000000     3.655325 CtfFind/job003/frames/TS_03_017_27_0_PS.ctf:mrc 14242.842745 14830.051966   483.606445   122.069114     0.065192     8.740214     1.192420     0.116446    27.061184    85.326421    10.940137    46.686365     1.053192 
frames/TS_03_020_30.0.mrc            8    30.000800    85.000000    60.000000     -1.50000 MotionCorr/job002/frames/TS_03_020_30_0_PS.mrc MotionCorr/job002/frames/TS_03_020_30_0_EVN.mrc MotionCorr/job002/frames/TS_03_020_30_0_ODD.mrc MotionCorr/job002/frames/TS_03_020_30_0.mrc MotionCorr/job002/frames/TS_03_020_30_0.star     2.856914     0.000000     2.856914 CtfFind/job003/frames/TS_03_020_30_0_PS.ctf:mrc 14610.485458 14846.838676   441.144531   137.481342     0.070988     8.532114     0.472590     0.111181    30.082086    85.351697     -3.45273    41.954693     1.040674 
frames/TS_03_021_33.0.mrc            8    33.001000    85.000000    63.000000     -1.50000 MotionCorr/job002/frames/TS_03_021_33_0_PS.mrc MotionCorr/job002/frames/TS_03_021_33_0_EVN.mrc MotionCorr/job002/frames/TS_03_021_33_0_ODD.mrc MotionCorr/job002/frames/TS_03_021_33_0.mrc MotionCorr/job002/frames/TS_03_021_33_0.star     3.391973     0.000000     3.391973 CtfFind/job003/frames/TS_03_021_33_0_PS.ctf:mrc 14296.997980 14503.198404 9.770000e-04   113.548477     0.070425     9.954133     0.465080     0.100748    33.090640    85.345776    12.612085    74.224710     0.938541 
frames/TS_03_024_36.0.mrc            8    36.000600    85.000000    72.000000     -1.50000 MotionCorr/job002/frames/TS_03_024_36_0_PS.mrc MotionCorr/job002/frames/TS_03_024_36_0_EVN.mrc MotionCorr/job002/frames/TS_03_024_36_0_ODD.mrc MotionCorr/job002/frames/TS_03_024_36_0.mrc MotionCorr/job002/frames/TS_03_024_36_0.star     3.601807     0.000000     3.601807 CtfFind/job003/frames/TS_03_024_36_0_PS.ctf:mrc 14806.114162 15405.285157   218.249023   153.155667     0.090294     8.848118     1.260370     0.164628    36.050379    85.370963     5.131587    72.011829     0.885964 
frames/TS_03_025_39.0.mrc            8    39.000700    85.000000    75.000000     -1.50000 MotionCorr/job002/frames/TS_03_025_39_0_PS.mrc MotionCorr/job002/frames/TS_03_025_39_0_EVN.mrc MotionCorr/job002/frames/TS_03_025_39_0_ODD.mrc MotionCorr/job002/frames/TS_03_025_39_0.mrc MotionCorr/job002/frames/TS_03_025_39_0.star     2.430764     0.000000     2.430764 CtfFind/job003/frames/TS_03_025_39_0_PS.ctf:mrc 14497.335974 14702.815331   131.612305    45.353441     0.093119    11.026116     0.573320     0.181815    39.041815    85.407357    16.995941   104.365927     0.852439 
frames/TS_03_028_42.0.mrc            8    42.000900    85.000000    84.000000     -1.50000 MotionCorr/job002/frames/TS_03_028_42_0_PS.mrc MotionCorr/job002/frames/TS_03_028_42_0_EVN.mrc MotionCorr/job002/frames/TS_03_028_42_0_ODD.mrc MotionCorr/job002/frames/TS_03_028_42_0.mrc MotionCorr/job002/frames/TS_03_028_42_0.star     4.460118     0.000000     4.460118 CtfFind/job003/frames/TS_03_028_42_0_PS.ctf:mrc 14013.711418 14719.626885   210.600586   -179.22911     0.087854    10.859054     0.604700     0.096650    42.069619    85.419576     -0.64340    96.539134     0.847314 
frames/TS_03_029_45.0.mrc            8    45.000500    85.000000    87.000000     -1.50000 MotionCorr/job002/frames/TS_03_029_45_0_PS.mrc MotionCorr/job002/frames/TS_03_029_45_0_EVN.mrc MotionCorr/job002/frames/TS_03_029_45_0_ODD.mrc MotionCorr/job002/frames/TS_03_029_45_0.mrc MotionCorr/job002/frames/TS_03_029_45_0.star     4.061861     0.000000     4.061861 CtfFind/job003/frames/TS_03_029_45_0_PS.ctf:mrc 14240.131231 15364.840520   159.059570   159.327817     0.144842    11.559638     0.594350     0.131876    45.057406    85.414888    17.396768   125.987724     0.693913 
frames/TS_03_032_48.0.mrc            8    47.999600    85.000000    96.000000     -1.50000 MotionCorr/job002/frames/TS_03_032_48_0_PS.mrc MotionCorr/job002/frames/TS_03_032_48_0_EVN.mrc MotionCorr/job002/frames/TS_03_032_48_0_ODD.mrc MotionCorr/job002/frames/TS_03_032_48_0.mrc MotionCorr/job002/frames/TS_03_032_48_0.star     3.930790     0.000000     3.930790 CtfFind/job003/frames/TS_03_032_48_0_PS.ctf:mrc 15009.072742 15255.673547   159.303711   137.593771     0.087733    10.094332     0.806360     0.154628    48.011094    85.479858     -1.21037   116.343360     0.635975 
frames/TS_03_033_51.0.mrc            8    50.999800    85.000000    99.000000     -1.50000 MotionCorr/job002/frames/TS_03_033_51_0_PS.mrc MotionCorr/job002/frames/TS_03_033_51_0_EVN.mrc MotionCorr/job002/frames/TS_03_033_51_0_ODD.mrc MotionCorr/job002/frames/TS_03_033_51_0.mrc MotionCorr/job002/frames/TS_03_033_51_0.star     3.402876     0.000000     3.402876 CtfFind/job003/frames/TS_03_033_51_0_PS.ctf:mrc 14402.299169 14662.886251    48.349609   106.854538     0.104601    25.000000     1.082720     0.186755    51.015391    85.513366    13.394224   146.817081     0.631492 
frames/TS_03_036_54.0.mrc            8    53.996900    85.000000   108.000000     -1.50000 MotionCorr/job002/frames/TS_03_036_54_0_PS.mrc MotionCorr/job002/frames/TS_03_036_54_0_EVN.mrc MotionCorr/job002/frames/TS_03_036_54_0_ODD.mrc MotionCorr/job002/frames/TS_03_036_54_0.mrc MotionCorr/job002/frames/TS_03_036_54_0.star     3.360161     0.000000     3.360161 CtfFind/job003/frames/TS_03_036_54_0_PS.ctf:mrc 14654.260548 15101.494513   104.427734   128.136034     0.133267    25.000000     0.507790     0.162076    54.006667    85.520041     -6.98736   140.071793     0.577356 
frames/TS_03_037_57.0.mrc            8    56.996000    85.000000   111.000000     -1.50000 MotionCorr/job002/frames/TS_03_037_57_0_PS.mrc MotionCorr/job002/frames/TS_03_037_57_0_EVN.mrc MotionCorr/job002/frames/TS_03_037_57_0_ODD.mrc MotionCorr/job002/frames/TS_03_037_57_0.mrc MotionCorr/job002/frames/TS_03_037_57_0.star     3.062455     0.000000     3.062455 CtfFind/job003/frames/TS_03_037_57_0_PS.ctf:mrc 14026.911625 14685.304707   208.624023   136.242856     0.111687     8.532114     0.553800     0.133500    56.923386    85.536754    13.546971   176.554732     0.499700 
frames/TS_03_040_60.0.mrc            8    59.998100    85.000000   120.000000     -1.50000 MotionCorr/job002/frames/TS_03_040_60_0_PS.mrc MotionCorr/job002/frames/TS_03_040_60_0_EVN.mrc MotionCorr/job002/frames/TS_03_040_60_0_ODD.mrc MotionCorr/job002/frames/TS_03_040_60_0.mrc MotionCorr/job002/frames/TS_03_040_60_0.star     4.056148     0.000000     4.056148 CtfFind/job003/frames/TS_03_040_60_0_PS.ctf:mrc 14570.622340 14976.136667    85.911133   128.306521     0.145422    25.000000     0.496110     0.265530    59.949218    85.631603     -5.02156   161.457092     0.486953 
 
