
# version 50001

data_TS_01

loop_ 
_rlnMicrographMovieName #1 
_rlnTomoTiltMovieFrameCount #2 
_rlnTomoNominalStageTiltAngle #3 
_rlnTomoNominalTiltAxisAngle #4 
_rlnMicrographPreExposure #5 
_rlnTomoNominalDefocus #6 
_rlnCtfPowerSpectrum #7 
_rlnMicrographNameEven #8 
_rlnMicrographNameOdd #9 
_rlnMicrographName #10 
_rlnMicrographMetadata #11 
_rlnAccumMotionTotal #12 
_rlnAccumMotionEarly #13 
_rlnAccumMotionLate #14 
_rlnCtfImage #15 
_rlnDefocusU #16 
_rlnDefocusV #17 
_rlnCtfAstigmatism #18 
_rlnDefocusAngle #19 
_rlnCtfFigureOfMerit #20 
_rlnCtfMaxResolution #21 
_rlnCtfIceRingDensity #22 
_rlnTomoXTilt #23 
_rlnTomoYTilt #24 
_rlnTomoZRot #25 
_rlnTomoXShiftAngst #26 
_rlnTomoYShiftAngst #27 
_rlnCtfScalefactor #28 
frames/TS_01_038_-57.0.mrc            8    -56.99850    85.000000   114.000000     -4.00000 MotionCorr/job002/frames/TS_01_038_-57_0_PS.mrc MotionCorr/job002/frames/TS_01_038_-57_0_EVN.mrc MotionCorr/job002/frames/TS_01_038_-57_0_ODD.mrc MotionCorr/job002/frames/TS_01_038_-57_0.mrc MotionCorr/job002/frames/TS_01_038_-57_0.star     6.867403     0.000000     6.867403 CtfFind/job003/frames/TS_01_038_-57_0_PS.ctf:mrc 39745.121542 39951.772312   109.371094   134.726584     0.098171    14.626481     0.624420     -0.04765    -57.16658    85.181785    37.328388   107.936141     0.424592 
frames/TS_01_035_-54.0.mrc            8    -53.99890    85.000000   105.000000     -4.00000 MotionCorr/job002/frames/TS_01_035_-54_0_PS.mrc MotionCorr/job002/frames/TS_01_035_-54_0_EVN.mrc MotionCorr/job002/frames/TS_01_035_-54_0_ODD.mrc MotionCorr/job002/frames/TS_01_035_-54_0.mrc MotionCorr/job002/frames/TS_01_035_-54_0.star     8.737374     0.000000     8.737374 CtfFind/job003/frames/TS_01_035_-54_0_PS.ctf:mrc 38967.244870 39371.530442   140.769531    96.441471     0.089442    14.931199     0.549690     -0.12212    -54.18512    85.249276    20.328165    90.994275     0.530620 
frames/TS_01_034_-51.0.mrc            8    -50.99880    85.000000   102.000000     -4.00000 MotionCorr/job002/frames/TS_01_034_-51_0_PS.mrc MotionCorr/job002/frames/TS_01_034_-51_0_EVN.mrc MotionCorr/job002/frames/TS_01_034_-51_0_ODD.mrc MotionCorr/job002/frames/TS_01_034_-51_0.mrc MotionCorr/job002/frames/TS_01_034_-51_0.star     9.400595     0.000000     9.400595 CtfFind/job003/frames/TS_01_034_-51_0_PS.ctf:mrc 39928.696315 40128.371681    40.027344   110.354716     0.126386    12.573642     0.511440     -0.15893    -51.18805    85.264595    30.040655   117.217130     0.500572 
frames/TS_01_031_-48.0.mrc            8    -47.99860    85.000000    93.000000     -4.00000 MotionCorr/job002/frames/TS_01_031_-48_0_PS.mrc MotionCorr/job002/frames/TS_01_031_-48_0_EVN.mrc MotionCorr/job002/frames/TS_01_031_-48_0_ODD.mrc MotionCorr/job002/frames/TS_01_031_-48_0.mrc MotionCorr/job002/frames/TS_01_031_-48_0.star     8.097709     0.000000     8.097709 CtfFind/job003/frames/TS_01_031_-48_0_PS.ctf:mrc 40335.499175 40706.173680   254.808594   120.146243     0.095329    11.559638     0.848440     -0.15470    -48.15954    85.257096    20.710819    95.338129     0.605382 
frames/TS_01_030_-45.0.mrc            8    -44.99900    85.000000    90.000000     -4.00000 MotionCorr/job002/frames/TS_01_030_-45_0_PS.mrc MotionCorr/job002/frames/TS_01_030_-45_0_EVN.mrc MotionCorr/job002/frames/TS_01_030_-45_0_ODD.mrc MotionCorr/job002/frames/TS_01_030_-45_0.mrc MotionCorr/job002/frames/TS_01_030_-45_0.star     7.706032     0.000000     7.706032 CtfFind/job003/frames/TS_01_030_-45_0_PS.ctf:mrc 39857.901837 40235.434681   242.738281    58.585179     0.064779    11.198400     0.478040     -0.11141    -45.16865    85.231522    27.150865   116.900917     0.591071 
frames/TS_01_027_-42.0.mrc            8    -41.99890    85.000000    81.000000     -4.00000 MotionCorr/job002/frames/TS_01_027_-42_0_PS.mrc MotionCorr/job002/frames/TS_01_027_-42_0_EVN.mrc MotionCorr/job002/frames/TS_01_027_-42_0_ODD.mrc MotionCorr/job002/frames/TS_01_027_-42_0.mrc MotionCorr/job002/frames/TS_01_027_-42_0.star     7.616364     0.000000     7.616364 CtfFind/job003/frames/TS_01_027_-42_0_PS.ctf:mrc 39839.397654 40401.141494   129.660156    90.960608     0.060071    11.198400     0.681970     -0.09255    -42.12746    85.237856    16.318135    92.621991     0.628178 
frames/TS_01_026_-39.0.mrc            8    -38.99870    85.000000    78.000000     -4.00000 MotionCorr/job002/frames/TS_01_026_-39_0_PS.mrc MotionCorr/job002/frames/TS_01_026_-39_0_EVN.mrc MotionCorr/job002/frames/TS_01_026_-39_0_ODD.mrc MotionCorr/job002/frames/TS_01_026_-39_0.mrc MotionCorr/job002/frames/TS_01_026_-39_0.star     6.881871     0.000000     6.881871 CtfFind/job003/frames/TS_01_026_-39_0_PS.ctf:mrc 39230.577205 40105.343301   408.003906   132.410600     0.058877     9.685102     0.421770     -0.08437    -39.13651    85.222851    21.537016   114.363064     0.652615 
frames/TS_01_023_-36.0.mrc            8    -35.99860    85.000000    69.000000     -4.00000 MotionCorr/job002/frames/TS_01_023_-36_0_PS.mrc MotionCorr/job002/frames/TS_01_023_-36_0_EVN.mrc MotionCorr/job002/frames/TS_01_023_-36_0_ODD.mrc MotionCorr/job002/frames/TS_01_023_-36_0.mrc MotionCorr/job002/frames/TS_01_023_-36_0.star     6.251948     0.000000     6.251948 CtfFind/job003/frames/TS_01_023_-36_0_PS.ctf:mrc 39537.672211 40055.872192   390.214844   109.818943     0.068964    10.094332     0.587930     -0.10069    -36.12523    85.222736    12.827489    87.789539     0.790672 
frames/TS_01_022_-33.0.mrc            8    -32.99900    85.000000    66.000000     -4.00000 MotionCorr/job002/frames/TS_01_022_-33_0_PS.mrc MotionCorr/job002/frames/TS_01_022_-33_0_EVN.mrc MotionCorr/job002/frames/TS_01_022_-33_0_ODD.mrc MotionCorr/job002/frames/TS_01_022_-33_0.mrc MotionCorr/job002/frames/TS_01_022_-33_0.star     5.508498     0.000000     5.508498 CtfFind/job003/frames/TS_01_022_-33_0_PS.ctf:mrc 39432.542047 39551.336250   131.757812   153.497437     0.068570     9.072121     1.470770     -0.11872    -33.10167    85.227574    17.119241   109.551094     0.872536 
frames/TS_01_019_-30.0.mrc            8    -29.99880    85.000000    57.000000     -4.00000 MotionCorr/job002/frames/TS_01_019_-30_0_PS.mrc MotionCorr/job002/frames/TS_01_019_-30_0_EVN.mrc MotionCorr/job002/frames/TS_01_019_-30_0_ODD.mrc MotionCorr/job002/frames/TS_01_019_-30_0.mrc MotionCorr/job002/frames/TS_01_019_-30_0.star     5.991338     0.000000     5.991338 CtfFind/job003/frames/TS_01_019_-30_0_PS.ctf:mrc 39462.656322 39858.606492   401.738281   148.347826     0.061857     9.188430     0.461620     -0.13847    -30.10614    85.226208     6.767026    80.815686     0.910776 
frames/TS_01_018_-27.0.mrc            8    -26.99920    85.000000    54.000000     -4.00000 MotionCorr/job002/frames/TS_01_018_-27_0_PS.mrc MotionCorr/job002/frames/TS_01_018_-27_0_EVN.mrc MotionCorr/job002/frames/TS_01_018_-27_0_ODD.mrc MotionCorr/job002/frames/TS_01_018_-27_0.mrc MotionCorr/job002/frames/TS_01_018_-27_0.star     3.764705     0.000000     3.764705 CtfFind/job003/frames/TS_01_018_-27_0_PS.ctf:mrc 39346.657087 39999.093685   461.804688   150.639072     0.043537     7.875797     0.967460     -0.11815    -27.08269    85.232534     9.418324   102.430712     0.952907 
frames/TS_01_015_-24.0.mrc            8    -23.99860    85.000000    45.000000     -4.00000 MotionCorr/job002/frames/TS_01_015_-24_0_PS.mrc MotionCorr/job002/frames/TS_01_015_-24_0_EVN.mrc MotionCorr/job002/frames/TS_01_015_-24_0_ODD.mrc MotionCorr/job002/frames/TS_01_015_-24_0.mrc MotionCorr/job002/frames/TS_01_015_-24_0.star     4.374630     0.000000     4.374630 CtfFind/job003/frames/TS_01_015_-24_0_PS.ctf:mrc 39375.013271 39914.464428   826.437500   160.060419     0.031468     9.072121     0.625670     -0.11538    -24.06363    85.222048     1.827189    72.587715     1.020296 
frames/TS_01_014_-21.0.mrc            8    -20.99890    85.000000    42.000000     -4.00000 MotionCorr/job002/frames/TS_01_014_-21_0_PS.mrc MotionCorr/job002/frames/TS_01_014_-21_0_EVN.mrc MotionCorr/job002/frames/TS_01_014_-21_0_ODD.mrc MotionCorr/job002/frames/TS_01_014_-21_0.mrc MotionCorr/job002/frames/TS_01_014_-21_0.star     3.208567     0.000000     3.208567 CtfFind/job003/frames/TS_01_014_-21_0_PS.ctf:mrc 39230.606898 39987.862081   438.785156   139.147082     0.059953     6.575207     0.532320     -0.07012    -21.05318    85.219911     8.797827   100.086275     1.058808 
frames/TS_01_011_-18.0.mrc            8    -17.99880    85.000000    33.000000     -4.00000 MotionCorr/job002/frames/TS_01_011_-18_0_PS.mrc MotionCorr/job002/frames/TS_01_011_-18_0_EVN.mrc MotionCorr/job002/frames/TS_01_011_-18_0_ODD.mrc MotionCorr/job002/frames/TS_01_011_-18_0.mrc MotionCorr/job002/frames/TS_01_011_-18_0.star     2.927541     0.000000     2.927541 CtfFind/job003/frames/TS_01_011_-18_0_PS.ctf:mrc 39305.517726 40016.802263   570.011719   143.659352     0.051604     8.052782     0.600150     -0.06950    -18.05461    85.217605     3.826719    70.092267     1.174686 
frames/TS_01_010_-15.0.mrc            8    -14.99870    85.000000    30.000000     -4.00000 MotionCorr/job002/frames/TS_01_010_-15_0_PS.mrc MotionCorr/job002/frames/TS_01_010_-15_0_EVN.mrc MotionCorr/job002/frames/TS_01_010_-15_0_ODD.mrc MotionCorr/job002/frames/TS_01_010_-15_0.mrc MotionCorr/job002/frames/TS_01_010_-15_0.star     3.144113     0.000000     3.144113 CtfFind/job003/frames/TS_01_010_-15_0_PS.ctf:mrc 39290.650952 39951.905769    58.691406   133.888470     0.057074     6.891323     1.495470     -0.07550    -15.03915    85.224291     7.499163    76.189572     1.165081 
frames/TS_01_007_-12.0.mrc            8    -11.99850    85.000000    21.000000     -4.00000 MotionCorr/job002/frames/TS_01_007_-12_0_PS.mrc MotionCorr/job002/frames/TS_01_007_-12_0_EVN.mrc MotionCorr/job002/frames/TS_01_007_-12_0_ODD.mrc MotionCorr/job002/frames/TS_01_007_-12_0.mrc MotionCorr/job002/frames/TS_01_007_-12_0.star     2.299021     0.000000     2.299021 CtfFind/job003/frames/TS_01_007_-12_0_PS.ctf:mrc 39339.288585 39811.578586   320.023438   141.588656     0.039666     7.544185     1.236110     -0.04582    -12.03109    85.224928     3.875076    71.157990     1.236613 
frames/TS_01_006_-9.0.mrc            8     -8.99890    85.000000    18.000000     -4.00000 MotionCorr/job002/frames/TS_01_006_-9_0_PS.mrc MotionCorr/job002/frames/TS_01_006_-9_0_EVN.mrc MotionCorr/job002/frames/TS_01_006_-9_0_ODD.mrc MotionCorr/job002/frames/TS_01_006_-9_0.mrc MotionCorr/job002/frames/TS_01_006_-9_0.star     2.231222     0.000000     2.231222 CtfFind/job003/frames/TS_01_006_-9_0_PS.ctf:mrc 39295.871845 39854.934597   974.921875   142.250636     0.041542     7.544185     1.137880     -0.04049     -9.01660    85.232021     6.407295    45.570887     1.287020 
frames/TS_01_003_-6.0.mrc            8     -5.99876    85.000000     9.000000     -4.00000 MotionCorr/job002/frames/TS_01_003_-6_0_PS.mrc MotionCorr/job002/frames/TS_01_003_-6_0_EVN.mrc MotionCorr/job002/frames/TS_01_003_-6_0_ODD.mrc MotionCorr/job002/frames/TS_01_003_-6_0.mrc MotionCorr/job002/frames/TS_01_003_-6_0.star     3.237798     0.000000     3.237798 CtfFind/job003/frames/TS_01_003_-6_0_PS.ctf:mrc 39228.977088 39787.431677   337.300781   139.318964     0.045582     7.096016     0.480650     -0.04175     -5.99169    85.239973     4.399240    46.943513     1.360628 
frames/TS_01_002_-3.0.mrc            8     -2.99863    85.000000     6.000000     -4.00000 MotionCorr/job002/frames/TS_01_002_-3_0_PS.mrc MotionCorr/job002/frames/TS_01_002_-3_0_EVN.mrc MotionCorr/job002/frames/TS_01_002_-3_0_ODD.mrc MotionCorr/job002/frames/TS_01_002_-3_0.mrc MotionCorr/job002/frames/TS_01_002_-3_0.star     2.008728     0.000000     2.008728 CtfFind/job003/frames/TS_01_002_-3_0_PS.ctf:mrc 39229.926499 39696.721830   250.898438   135.776015     0.043894     6.232153     1.195820     -0.03476     -2.97603    85.247366     -1.09519    15.835372     1.294295 
frames/TS_01_000_0.0.mrc            8     0.001000    85.000000     0.000000     -4.00000 MotionCorr/job002/frames/TS_01_000_0_0_PS.mrc MotionCorr/job002/frames/TS_01_000_0_0_EVN.mrc MotionCorr/job002/frames/TS_01_000_0_0_ODD.mrc MotionCorr/job002/frames/TS_01_000_0_0.mrc MotionCorr/job002/frames/TS_01_000_0_0.star     2.297631     1.007983     1.289649 CtfFind/job003/frames/TS_01_000_0_0_PS.ctf:mrc 39165.207008 39448.830029   105.000000   138.618953     0.035810     7.026447     0.605850     -0.01924     0.025631    85.256024     1.511205     -9.45215     1.215956 
frames/TS_01_001_3.0.mrc            8     3.001130    85.000000     3.000000     -4.00000 MotionCorr/job002/frames/TS_01_001_3_0_PS.mrc MotionCorr/job002/frames/TS_01_001_3_0_EVN.mrc MotionCorr/job002/frames/TS_01_001_3_0_ODD.mrc MotionCorr/job002/frames/TS_01_001_3_0.mrc MotionCorr/job002/frames/TS_01_001_3_0.star     2.384960     0.000000     2.384960 CtfFind/job003/frames/TS_01_001_3_0_PS.ctf:mrc 39295.996610 39691.763258    40.277344   138.218952     0.045554     6.575207     0.570030     0.001104     3.041723    85.264619     -3.85638    -42.75791     1.329416 
frames/TS_01_004_6.0.mrc            8     6.001260    85.000000    12.000000     -4.00000 MotionCorr/job002/frames/TS_01_004_6_0_PS.mrc MotionCorr/job002/frames/TS_01_004_6_0_EVN.mrc MotionCorr/job002/frames/TS_01_004_6_0_ODD.mrc MotionCorr/job002/frames/TS_01_004_6_0.mrc MotionCorr/job002/frames/TS_01_004_6_0.star     2.323928     0.000000     2.323928 CtfFind/job003/frames/TS_01_004_6_0_PS.ctf:mrc 39324.894575 39747.812040   211.851562   140.185149     0.050940     6.958229     0.600390     -0.00606     6.079158    85.263632     -7.55579    -66.18333     1.355182 
frames/TS_01_005_9.0.mrc            8     9.001400    85.000000    15.000000     -4.00000 MotionCorr/job002/frames/TS_01_005_9_0_PS.mrc MotionCorr/job002/frames/TS_01_005_9_0_EVN.mrc MotionCorr/job002/frames/TS_01_005_9_0_ODD.mrc MotionCorr/job002/frames/TS_01_005_9_0.mrc MotionCorr/job002/frames/TS_01_005_9_0.star     2.180758     0.000000     2.180758 CtfFind/job003/frames/TS_01_005_9_0_PS.ctf:mrc 39207.625336 39715.770207   895.097656   143.141076     0.047935     6.232153     0.796060     0.012987     9.078396    85.276018     -8.33838    -59.35901     1.331742 
frames/TS_01_008_12.0.mrc            8    12.000500    85.000000    24.000000     -4.00000 MotionCorr/job002/frames/TS_01_008_12_0_PS.mrc MotionCorr/job002/frames/TS_01_008_12_0_EVN.mrc MotionCorr/job002/frames/TS_01_008_12_0_ODD.mrc MotionCorr/job002/frames/TS_01_008_12_0.mrc MotionCorr/job002/frames/TS_01_008_12_0.star     2.105090     0.000000     2.105090 CtfFind/job003/frames/TS_01_008_12_0_PS.ctf:mrc 39162.779079 39714.952279   249.871094   143.282463     0.068617     6.761298     0.636830     0.016703    12.068841    85.276431     -9.64813    -87.02065     1.214274 
frames/TS_01_009_15.0.mrc            8    15.000700    85.000000    27.000000     -4.00000 MotionCorr/job002/frames/TS_01_009_15_0_PS.mrc MotionCorr/job002/frames/TS_01_009_15_0_EVN.mrc MotionCorr/job002/frames/TS_01_009_15_0_ODD.mrc MotionCorr/job002/frames/TS_01_009_15_0.mrc MotionCorr/job002/frames/TS_01_009_15_0.star     2.645439     0.000000     2.645439 CtfFind/job003/frames/TS_01_009_15_0_PS.ctf:mrc 39118.392206 39705.337532   246.207031   149.524790     0.060885     6.636089     1.134630     0.005197    15.081064    85.279567    -12.58537    -73.61919     1.229389 
frames/TS_01_012_18.0.mrc            8    18.000800    85.000000    36.000000     -4.00000 MotionCorr/job002/frames/TS_01_012_18_0_PS.mrc MotionCorr/job002/frames/TS_01_012_18_0_EVN.mrc MotionCorr/job002/frames/TS_01_012_18_0_ODD.mrc MotionCorr/job002/frames/TS_01_012_18_0.mrc MotionCorr/job002/frames/TS_01_012_18_0.star     3.365260     0.000000     3.365260 CtfFind/job003/frames/TS_01_012_18_0_PS.ctf:mrc 39315.174086 39670.242348   126.351562   140.081266     0.056260     8.144291     0.656890     0.041067    18.067737    85.301832    -16.25295   -105.31676     1.143644 
frames/TS_01_013_21.0.mrc            8    21.000900    85.000000    39.000000     -4.00000 MotionCorr/job002/frames/TS_01_013_21_0_PS.mrc MotionCorr/job002/frames/TS_01_013_21_0_EVN.mrc MotionCorr/job002/frames/TS_01_013_21_0_ODD.mrc MotionCorr/job002/frames/TS_01_013_21_0.mrc MotionCorr/job002/frames/TS_01_013_21_0.star     3.806968     0.000000     3.806968 CtfFind/job003/frames/TS_01_013_21_0_PS.ctf:mrc 39279.633337 39948.731733   205.695312   129.432309     0.045835     7.313241     0.594060     0.052067    21.059790    85.309991    -16.90898   -103.88557     1.117564 
frames/TS_01_016_24.0.mrc            8    24.000600    85.000000    48.000000     -4.00000 MotionCorr/job002/frames/TS_01_016_24_0_PS.mrc MotionCorr/job002/frames/TS_01_016_24_0_EVN.mrc MotionCorr/job002/frames/TS_01_016_24_0_ODD.mrc MotionCorr/job002/frames/TS_01_016_24_0.mrc MotionCorr/job002/frames/TS_01_016_24_0.star     3.305467     0.000000     3.305467 CtfFind/job003/frames/TS_01_016_24_0_PS.ctf:mrc 39217.890432 39968.683944   309.660156   162.949195     0.074357     8.052782     1.427420     0.050494    24.074943    85.325304    -19.42907   -124.08089     1.045945 
frames/TS_01_017_27.0.mrc            8    27.000700    85.000000    51.000000     -4.00000 MotionCorr/job002/frames/TS_01_017_27_0_PS.mrc MotionCorr/job002/frames/TS_01_017_27_0_EVN.mrc MotionCorr/job002/frames/TS_01_017_27_0_ODD.mrc MotionCorr/job002/frames/TS_01_017_27_0.mrc MotionCorr/job002/frames/TS_01_017_27_0.star     4.514617     0.000000     4.514617 CtfFind/job003/frames/TS_01_017_27_0_PS.ctf:mrc 39225.471051 39496.095718   128.867188   157.510052     0.057817     8.958720     1.250290     0.075295    27.074345    85.342375    -16.80396   -129.21290     0.991272 
frames/TS_01_020_30.0.mrc            8    30.000800    85.000000    60.000000     -4.00000 MotionCorr/job002/frames/TS_01_020_30_0_PS.mrc MotionCorr/job002/frames/TS_01_020_30_0_EVN.mrc MotionCorr/job002/frames/TS_01_020_30_0_ODD.mrc MotionCorr/job002/frames/TS_01_020_30_0.mrc MotionCorr/job002/frames/TS_01_020_30_0.star     4.122379     0.000000     4.122379 CtfFind/job003/frames/TS_01_020_30_0_PS.ctf:mrc 39444.548818 39725.005954   696.796875   -156.62756     0.053755     9.430231     0.488000     0.124527    30.086949    85.374848    -27.35188   -140.78774     0.893335 
frames/TS_01_021_33.0.mrc            8    33.001000    85.000000    63.000000     -4.00000 MotionCorr/job002/frames/TS_01_021_33_0_PS.mrc MotionCorr/job002/frames/TS_01_021_33_0_EVN.mrc MotionCorr/job002/frames/TS_01_021_33_0_ODD.mrc MotionCorr/job002/frames/TS_01_021_33_0.mrc MotionCorr/job002/frames/TS_01_021_33_0.star     4.487542     0.000000     4.487542 CtfFind/job003/frames/TS_01_021_33_0_PS.ctf:mrc 39574.395723 39935.444433   152.042969   133.346064     0.081110     8.848118     0.590140     0.109418    33.074851    85.373586    -21.02041   -128.58955     0.866102 
frames/TS_01_024_36.0.mrc            8    36.000600    85.000000    72.000000     -4.00000 MotionCorr/job002/frames/TS_01_024_36_0_PS.mrc MotionCorr/job002/frames/TS_01_024_36_0_EVN.mrc MotionCorr/job002/frames/TS_01_024_36_0_ODD.mrc MotionCorr/job002/frames/TS_01_024_36_0.mrc MotionCorr/job002/frames/TS_01_024_36_0.star     4.487724     0.000000     4.487724 CtfFind/job003/frames/TS_01_024_36_0_PS.ctf:mrc 39061.516011 39650.460227   435.519531    95.783093     0.072468    10.539670     0.864610     0.120283    36.013355    85.389475    -23.68493   -151.81928     0.801927 
frames/TS_01_025_39.0.mrc            8    39.000700    85.000000    75.000000     -4.00000 MotionCorr/job002/frames/TS_01_025_39_0_PS.mrc MotionCorr/job002/frames/TS_01_025_39_0_EVN.mrc MotionCorr/job002/frames/TS_01_025_39_0_ODD.mrc MotionCorr/job002/frames/TS_01_025_39_0.mrc MotionCorr/job002/frames/TS_01_025_39_0.star     5.025156     0.000000     5.025156 CtfFind/job003/frames/TS_01_025_39_0_PS.ctf:mrc 38771.902045 40324.162576   507.058594   120.550639     0.083311     9.954133     0.650820     0.128630    39.026916    85.405812    -10.25109   -137.05145     0.695129 
frames/TS_01_028_42.0.mrc            8    42.000900    85.000000    84.000000     -4.00000 MotionCorr/job002/frames/TS_01_028_42_0_PS.mrc MotionCorr/job002/frames/TS_01_028_42_0_EVN.mrc MotionCorr/job002/frames/TS_01_028_42_0_ODD.mrc MotionCorr/job002/frames/TS_01_028_42_0.mrc MotionCorr/job002/frames/TS_01_028_42_0.star     4.218339     0.000000     4.218339 CtfFind/job003/frames/TS_01_028_42_0_PS.ctf:mrc 39179.473972 39588.468072   295.824219   117.005817     0.102306    10.386921     0.533730     0.192924    42.023666    85.467454    -27.66482   -163.49652     0.704321 
frames/TS_01_029_45.0.mrc            8    45.001000    85.000000    87.000000     -4.00000 MotionCorr/job002/frames/TS_01_029_45_0_PS.mrc MotionCorr/job002/frames/TS_01_029_45_0_EVN.mrc MotionCorr/job002/frames/TS_01_029_45_0_ODD.mrc MotionCorr/job002/frames/TS_01_029_45_0.mrc MotionCorr/job002/frames/TS_01_029_45_0.star     5.827766     0.000000     5.827766 CtfFind/job003/frames/TS_01_029_45_0_PS.ctf:mrc 38342.626079 39311.544231   193.757812   162.343951     0.083501    10.238537     0.576610     0.182441    45.012600    85.453623    -12.28114   -145.04846     0.662474 
frames/TS_01_032_48.0.mrc            8    48.000600    85.000000    96.000000     -4.00000 MotionCorr/job002/frames/TS_01_032_48_0_PS.mrc MotionCorr/job002/frames/TS_01_032_48_0_EVN.mrc MotionCorr/job002/frames/TS_01_032_48_0_ODD.mrc MotionCorr/job002/frames/TS_01_032_48_0.mrc MotionCorr/job002/frames/TS_01_032_48_0.star     5.189981     0.000000     5.189981 CtfFind/job003/frames/TS_01_032_48_0_PS.ctf:mrc 38579.010894 39128.700775   264.953125   146.213034     0.103284    11.749141     1.007310     0.264160    47.990650    85.521133    -29.45221   -168.95694     0.652034 
frames/TS_01_033_51.0.mrc            8    51.000800    85.000000    99.000000     -4.00000 MotionCorr/job002/frames/TS_01_033_51_0_PS.mrc MotionCorr/job002/frames/TS_01_033_51_0_EVN.mrc MotionCorr/job002/frames/TS_01_033_51_0_ODD.mrc MotionCorr/job002/frames/TS_01_033_51_0.mrc MotionCorr/job002/frames/TS_01_033_51_0.star     6.903079     0.000000     6.903079 CtfFind/job003/frames/TS_01_033_51_0_PS.ctf:mrc 39136.184761 39785.909656   121.355469   122.101905     0.074141    12.356855     0.623900     0.203639    51.021044    85.506714    -11.62764   -142.12152     0.618354 
frames/TS_01_036_54.0.mrc            8    54.000900    85.000000   108.000000     -4.00000 MotionCorr/job002/frames/TS_01_036_54_0_PS.mrc MotionCorr/job002/frames/TS_01_036_54_0_EVN.mrc MotionCorr/job002/frames/TS_01_036_54_0_ODD.mrc MotionCorr/job002/frames/TS_01_036_54_0.mrc MotionCorr/job002/frames/TS_01_036_54_0.star     4.851630     0.000000     4.851630 CtfFind/job003/frames/TS_01_036_54_0_PS.ctf:mrc 39234.395681 39327.830803   162.777344    86.652189     0.105213    13.782646     0.538310     0.277768    54.003276    85.547958    -32.12543   -161.44474     0.538260 
frames/TS_01_037_57.0.mrc            8    57.000000    85.000000   111.000000     -4.00000 MotionCorr/job002/frames/TS_01_037_57_0_PS.mrc MotionCorr/job002/frames/TS_01_037_57_0_EVN.mrc MotionCorr/job002/frames/TS_01_037_57_0_ODD.mrc MotionCorr/job002/frames/TS_01_037_57_0.mrc MotionCorr/job002/frames/TS_01_037_57_0.star     5.856454     0.000000     5.856454 CtfFind/job003/frames/TS_01_037_57_0_PS.ctf:mrc 37898.298755 38180.108012     2.816406    99.502577     0.115731    14.626481     0.839010     0.290235    57.031204    85.559095    -13.67365   -136.60149     0.455280 
frames/TS_01_040_60.0.mrc            8    60.000600    85.000000   120.000000     -4.00000 MotionCorr/job002/frames/TS_01_040_60_0_PS.mrc MotionCorr/job002/frames/TS_01_040_60_0_EVN.mrc MotionCorr/job002/frames/TS_01_040_60_0_ODD.mrc MotionCorr/job002/frames/TS_01_040_60_0.mrc MotionCorr/job002/frames/TS_01_040_60_0.star     6.036839     0.000000     6.036839 CtfFind/job003/frames/TS_01_040_60_0_PS.ctf:mrc 38763.835188 39165.599228    95.328125   121.377830     0.159484    14.333951     1.524560     0.257763    60.030578    85.612608    -30.32405   -157.01530     0.401657 
 
