
# version 50001

data_TS_03

loop_ 
_rlnMicrographMovieName #1 
_rlnTomoTiltMovieFrameCount #2 
_rlnTomoNominalStageTiltAngle #3 
_rlnTomoNominalTiltAxisAngle #4 
_rlnMicrographPreExposure #5 
_rlnTomoNominalDefocus #6 
_rlnCtfPowerSpectrum #7 
_rlnMicrographNameEven #8 
_rlnMicrographNameOdd #9 
_rlnMicrographName #10 
_rlnMicrographMetadata #11 
_rlnAccumMotionTotal #12 
_rlnAccumMotionEarly #13 
_rlnAccumMotionLate #14 
_rlnCtfImage #15 
_rlnDefocusU #16 
_rlnDefocusV #17 
_rlnCtfAstigmatism #18 
_rlnDefocusAngle #19 
_rlnCtfFigureOfMerit #20 
_rlnCtfMaxResolution #21 
_rlnCtfIceRingDensity #22 
_rlnTomoXTilt #23 
_rlnTomoYTilt #24 
_rlnTomoZRot #25 
_rlnTomoXShiftAngst #26 
_rlnTomoYShiftAngst #27 
_rlnCtfScalefactor #28 
frames/TS_03_038_-57.0.mrc            8    -56.99900    85.000000   114.000000     -1.50000 MotionCorr/job002/frames/TS_03_038_-57_0_PS.mrc MotionCorr/job002/frames/TS_03_038_-57_0_EVN.mrc MotionCorr/job002/frames/TS_03_038_-57_0_ODD.mrc MotionCorr/job002/frames/TS_03_038_-57_0.mrc MotionCorr/job002/frames/TS_03_038_-57_0.star    96.111993     0.000000    96.111993 CtfFind/job003/frames/TS_03_038_-57_0_PS.ctf:mrc 15733.016798 16126.722454    91.772461   133.014810     0.015304    25.000000     0.530370     -0.15023    -57.23500    85.207156   -238.62453   -132.86837     0.428556 
frames/TS_03_035_-54.0.mrc            8    -53.99890    85.000000   105.000000     -1.50000 MotionCorr/job002/frames/TS_03_035_-54_0_PS.mrc MotionCorr/job002/frames/TS_03_035_-54_0_EVN.mrc MotionCorr/job002/frames/TS_03_035_-54_0_ODD.mrc MotionCorr/job002/frames/TS_03_035_-54_0.mrc MotionCorr/job002/frames/TS_03_035_-54_0.star    39.495946     0.000000    39.495946 CtfFind/job003/frames/TS_03_035_-54_0_PS.ctf:mrc 14789.048385 15363.106682    57.083984   126.051903     0.047231    25.000000     0.541930     -0.12909    -54.18945    85.224750    -62.42486   -110.54991     0.582374 
frames/TS_03_034_-51.0.mrc            8    -50.99930    85.000000   102.000000     -1.50000 MotionCorr/job002/frames/TS_03_034_-51_0_PS.mrc MotionCorr/job002/frames/TS_03_034_-51_0_EVN.mrc MotionCorr/job002/frames/TS_03_034_-51_0_ODD.mrc MotionCorr/job002/frames/TS_03_034_-51_0.mrc MotionCorr/job002/frames/TS_03_034_-51_0.star     8.906427     0.000000     8.906427 CtfFind/job003/frames/TS_03_034_-51_0_PS.ctf:mrc 12492.017567 13726.133527   539.439453   139.334072     0.074001    25.000000     0.540480     -0.22976    -51.15386    85.236885    15.619460    -53.96784     0.630590 
frames/TS_03_031_-48.0.mrc            8    -47.99910    85.000000    93.000000     -1.50000 MotionCorr/job002/frames/TS_03_031_-48_0_PS.mrc MotionCorr/job002/frames/TS_03_031_-48_0_EVN.mrc MotionCorr/job002/frames/TS_03_031_-48_0_ODD.mrc MotionCorr/job002/frames/TS_03_031_-48_0.mrc MotionCorr/job002/frames/TS_03_031_-48_0.star     5.301389     0.000000     5.301389 CtfFind/job003/frames/TS_03_031_-48_0_PS.ctf:mrc 12708.317013 13556.060916   424.787109   139.519500     0.070006     8.634910     0.616740     -0.19754    -48.13928    85.253726    17.123532    -58.21140     0.675503 
frames/TS_03_030_-45.0.mrc            8    -44.99900    85.000000    90.000000     -1.50000 MotionCorr/job002/frames/TS_03_030_-45_0_PS.mrc MotionCorr/job002/frames/TS_03_030_-45_0_EVN.mrc MotionCorr/job002/frames/TS_03_030_-45_0_ODD.mrc MotionCorr/job002/frames/TS_03_030_-45_0.mrc MotionCorr/job002/frames/TS_03_030_-45_0.star     4.361125     0.000000     4.361125 CtfFind/job003/frames/TS_03_030_-45_0_PS.ctf:mrc 13886.004265 14882.171808   521.800781   139.288381     0.079347    10.094332     0.768970     -0.10451    -45.09973    85.245473    26.781531    -24.22804     0.666636 
frames/TS_03_027_-42.0.mrc            8    -41.99940    85.000000    81.000000     -1.50000 MotionCorr/job002/frames/TS_03_027_-42_0_PS.mrc MotionCorr/job002/frames/TS_03_027_-42_0_EVN.mrc MotionCorr/job002/frames/TS_03_027_-42_0_ODD.mrc MotionCorr/job002/frames/TS_03_027_-42_0.mrc MotionCorr/job002/frames/TS_03_027_-42_0.star     3.259830     0.000000     3.259830 CtfFind/job003/frames/TS_03_027_-42_0_PS.ctf:mrc 13367.990737 14976.745526   890.588867   141.152605     0.072639     9.685102     0.694580     -0.04289    -42.16889    85.199541    20.960815    -32.29712     0.725465 
frames/TS_03_026_-39.0.mrc            8    -38.99870    85.000000    78.000000     -1.50000 MotionCorr/job002/frames/TS_03_026_-39_0_PS.mrc MotionCorr/job002/frames/TS_03_026_-39_0_EVN.mrc MotionCorr/job002/frames/TS_03_026_-39_0_ODD.mrc MotionCorr/job002/frames/TS_03_026_-39_0.mrc MotionCorr/job002/frames/TS_03_026_-39_0.star     3.213115     0.000000     3.213115 CtfFind/job003/frames/TS_03_026_-39_0_PS.ctf:mrc 14022.643368 15045.135200   603.708984   150.163194     0.087992    10.696979     0.975220     -0.08272    -39.12935    85.225975    26.298568     -3.29114     0.763770 
frames/TS_03_023_-36.0.mrc            8    -35.99860    85.000000    69.000000     -1.50000 MotionCorr/job002/frames/TS_03_023_-36_0_PS.mrc MotionCorr/job002/frames/TS_03_023_-36_0_EVN.mrc MotionCorr/job002/frames/TS_03_023_-36_0_ODD.mrc MotionCorr/job002/frames/TS_03_023_-36_0.mrc MotionCorr/job002/frames/TS_03_023_-36_0.star     3.701328     0.000000     3.701328 CtfFind/job003/frames/TS_03_023_-36_0_PS.ctf:mrc 13803.181053 14592.932332   275.329102   144.406196     0.076480     9.954133     0.493570     -0.05927    -36.10328    85.210526    17.997182    -12.97662     0.791396 
frames/TS_03_022_-33.0.mrc            8    -32.99900    85.000000    66.000000     -1.50000 MotionCorr/job002/frames/TS_03_022_-33_0_PS.mrc MotionCorr/job002/frames/TS_03_022_-33_0_EVN.mrc MotionCorr/job002/frames/TS_03_022_-33_0_ODD.mrc MotionCorr/job002/frames/TS_03_022_-33_0.mrc MotionCorr/job002/frames/TS_03_022_-33_0.star     3.010083     0.000000     3.010083 CtfFind/job003/frames/TS_03_022_-33_0_PS.ctf:mrc 13807.305897 14999.786219   693.416016   137.079934     0.085505     9.188430     0.757130     -0.07081    -33.07632    85.201079    21.301049    15.336414     0.861272 
frames/TS_03_019_-30.0.mrc            8    -29.99930    85.000000    57.000000     -1.50000 MotionCorr/job002/frames/TS_03_019_-30_0_PS.mrc MotionCorr/job002/frames/TS_03_019_-30_0_EVN.mrc MotionCorr/job002/frames/TS_03_019_-30_0_ODD.mrc MotionCorr/job002/frames/TS_03_019_-30_0.mrc MotionCorr/job002/frames/TS_03_019_-30_0.star     2.650273     0.000000     2.650273 CtfFind/job003/frames/TS_03_019_-30_0_PS.ctf:mrc 13704.539455 14937.924701   515.045898   146.008068     0.079407     8.848118     0.717920     -0.06516    -30.07717    85.225233    12.514845     4.616998     0.903884 
frames/TS_03_018_-27.0.mrc            8    -26.99870    85.000000    54.000000     -1.50000 MotionCorr/job002/frames/TS_03_018_-27_0_PS.mrc MotionCorr/job002/frames/TS_03_018_-27_0_EVN.mrc MotionCorr/job002/frames/TS_03_018_-27_0_ODD.mrc MotionCorr/job002/frames/TS_03_018_-27_0.mrc MotionCorr/job002/frames/TS_03_018_-27_0.star     2.942248     0.000000     2.942248 CtfFind/job003/frames/TS_03_018_-27_0_PS.ctf:mrc 13671.229185 14875.820613   774.749023   156.612462     0.072302     8.532114     0.897310     -0.02515    -27.07242    85.216856    17.469464    35.123529     0.923137 
frames/TS_03_015_-24.0.mrc            8    -23.99860    85.000000    45.000000     -1.50000 MotionCorr/job002/frames/TS_03_015_-24_0_PS.mrc MotionCorr/job002/frames/TS_03_015_-24_0_EVN.mrc MotionCorr/job002/frames/TS_03_015_-24_0_ODD.mrc MotionCorr/job002/frames/TS_03_015_-24_0.mrc MotionCorr/job002/frames/TS_03_015_-24_0.star     2.726784     0.000000     2.726784 CtfFind/job003/frames/TS_03_015_-24_0_PS.ctf:mrc 13765.599011 14748.624344   554.796875   144.568573     0.081781     7.026447     0.592440     -0.01181    -24.06714    85.211496    10.323301    22.532362     1.078969 
frames/TS_03_014_-21.0.mrc            8    -20.99890    85.000000    42.000000     -1.50000 MotionCorr/job002/frames/TS_03_014_-21_0_PS.mrc MotionCorr/job002/frames/TS_03_014_-21_0_EVN.mrc MotionCorr/job002/frames/TS_03_014_-21_0_ODD.mrc MotionCorr/job002/frames/TS_03_014_-21_0.mrc MotionCorr/job002/frames/TS_03_014_-21_0.star     2.414818     0.000000     2.414818 CtfFind/job003/frames/TS_03_014_-21_0_PS.ctf:mrc 14116.422246 14706.856992   566.877930   146.402322     0.080299     6.286821     0.662610     0.015790    -21.06199    85.213748    19.056429    52.903096     1.165377 
frames/TS_03_011_-18.0.mrc            8    -17.99880    85.000000    33.000000     -1.50000 MotionCorr/job002/frames/TS_03_011_-18_0_PS.mrc MotionCorr/job002/frames/TS_03_011_-18_0_EVN.mrc MotionCorr/job002/frames/TS_03_011_-18_0_ODD.mrc MotionCorr/job002/frames/TS_03_011_-18_0.mrc MotionCorr/job002/frames/TS_03_011_-18_0.star     2.602850     0.000000     2.602850 CtfFind/job003/frames/TS_03_011_-18_0_PS.ctf:mrc 14235.316972 14960.698882   726.788086   147.404080     0.079273     7.026447     0.824200 7.578224e-04    -18.07413    85.222224    14.285880    36.625315     1.202424 
frames/TS_03_010_-15.0.mrc            8    -14.99920    85.000000    30.000000     -1.50000 MotionCorr/job002/frames/TS_03_010_-15_0_PS.mrc MotionCorr/job002/frames/TS_03_010_-15_0_EVN.mrc MotionCorr/job002/frames/TS_03_010_-15_0_ODD.mrc MotionCorr/job002/frames/TS_03_010_-15_0.mrc MotionCorr/job002/frames/TS_03_010_-15_0.star     3.136864     0.000000     3.136864 CtfFind/job003/frames/TS_03_010_-15_0_PS.ctf:mrc 14321.377770 14770.002907   394.884766   137.791546     0.089302     6.022669     0.844510     0.020270    -15.04695    85.227018    19.461311    62.659231     1.235074 
frames/TS_03_007_-12.0.mrc            8    -11.99800    85.000000    21.000000     -1.50000 MotionCorr/job002/frames/TS_03_007_-12_0_PS.mrc MotionCorr/job002/frames/TS_03_007_-12_0_EVN.mrc MotionCorr/job002/frames/TS_03_007_-12_0_ODD.mrc MotionCorr/job002/frames/TS_03_007_-12_0.mrc MotionCorr/job002/frames/TS_03_007_-12_0.star     2.313651     0.000000     2.313651 CtfFind/job003/frames/TS_03_007_-12_0_PS.ctf:mrc 14256.892288 14832.177176   359.812500   142.613376     0.078866     5.733581     0.805790     -0.00365    -12.04760    85.234891    14.684541    53.375113     1.350208 
frames/TS_03_006_-9.0.mrc            8     -8.99890    85.000000    18.000000     -1.50000 MotionCorr/job002/frames/TS_03_006_-9_0_PS.mrc MotionCorr/job002/frames/TS_03_006_-9_0_EVN.mrc MotionCorr/job002/frames/TS_03_006_-9_0_ODD.mrc MotionCorr/job002/frames/TS_03_006_-9_0.mrc MotionCorr/job002/frames/TS_03_006_-9_0.star     2.740379     0.000000     2.740379 CtfFind/job003/frames/TS_03_006_-9_0_PS.ctf:mrc 14340.148520 14878.697364   464.789062   143.867065     0.076235     5.429527     0.739670     -0.01609     -9.02642    85.239090    18.489370    49.758590     1.411416 
frames/TS_03_003_-6.0.mrc            8     -5.99827    85.000000     9.000000     -1.50000 MotionCorr/job002/frames/TS_03_003_-6_0_PS.mrc MotionCorr/job002/frames/TS_03_003_-6_0_EVN.mrc MotionCorr/job002/frames/TS_03_003_-6_0_ODD.mrc MotionCorr/job002/frames/TS_03_003_-6_0.mrc MotionCorr/job002/frames/TS_03_003_-6_0.star     2.179822     0.000000     2.179822 CtfFind/job003/frames/TS_03_003_-6_0_PS.ctf:mrc 14391.604387 14859.900531   423.504883   144.479569     0.061769     5.193461     0.531500     -0.03631     -6.03602    85.248911    14.008708    53.576842     1.480526 
frames/TS_03_002_-3.0.mrc            8     -2.99863    85.000000     6.000000     -1.50000 MotionCorr/job002/frames/TS_03_002_-3_0_PS.mrc MotionCorr/job002/frames/TS_03_002_-3_0_EVN.mrc MotionCorr/job002/frames/TS_03_002_-3_0_ODD.mrc MotionCorr/job002/frames/TS_03_002_-3_0.mrc MotionCorr/job002/frames/TS_03_002_-3_0.star     1.817747     0.000000     1.817747 CtfFind/job003/frames/TS_03_002_-3_0_PS.ctf:mrc 14381.434821 14856.766187   554.088867   146.962341     0.066306     4.977066     0.697890     -0.04383     -3.04359    85.251030    14.564690    36.614715     1.446658 
frames/TS_03_000_0.0.mrc            8     0.001500    85.000000     0.000000     -1.50000 MotionCorr/job002/frames/TS_03_000_0_0_PS.mrc MotionCorr/job002/frames/TS_03_000_0_0_EVN.mrc MotionCorr/job002/frames/TS_03_000_0_0_ODD.mrc MotionCorr/job002/frames/TS_03_000_0_0.mrc MotionCorr/job002/frames/TS_03_000_0_0.star     4.072953     2.389154     1.683799 CtfFind/job003/frames/TS_03_000_0_0_PS.ctf:mrc 14431.751469 14917.347640   655.861328   150.681806     0.061578     4.875494     0.773580     -0.09771     -0.04736    85.260264    16.021784    50.897934     1.483320 
frames/TS_03_001_3.0.mrc            8     3.001130    85.000000     3.000000     -1.50000 MotionCorr/job002/frames/TS_03_001_3_0_PS.mrc MotionCorr/job002/frames/TS_03_001_3_0_EVN.mrc MotionCorr/job002/frames/TS_03_001_3_0_ODD.mrc MotionCorr/job002/frames/TS_03_001_3_0.mrc MotionCorr/job002/frames/TS_03_001_3_0.star     2.934302     0.000000     2.934302 CtfFind/job003/frames/TS_03_001_3_0_PS.ctf:mrc 14449.863142 14876.831035   414.947266   142.322368     0.074139     5.733581     0.409340     -0.06675     2.968883    85.268001    16.639541    69.152680     1.464797 
frames/TS_03_004_6.0.mrc            8     6.000760    85.000000    12.000000     -1.50000 MotionCorr/job002/frames/TS_03_004_6_0_PS.mrc MotionCorr/job002/frames/TS_03_004_6_0_EVN.mrc MotionCorr/job002/frames/TS_03_004_6_0_ODD.mrc MotionCorr/job002/frames/TS_03_004_6_0.mrc MotionCorr/job002/frames/TS_03_004_6_0.star     2.497861     0.000000     2.497861 CtfFind/job003/frames/TS_03_004_6_0_PS.ctf:mrc 14396.461068 14782.706481   293.609375   144.971959     0.075577     5.429527     0.752080     -0.01275     6.024360    85.268289    12.944955    44.972525     1.424074 
frames/TS_03_005_9.0.mrc            8     9.001400    85.000000    15.000000     -1.50000 MotionCorr/job002/frames/TS_03_005_9_0_PS.mrc MotionCorr/job002/frames/TS_03_005_9_0_EVN.mrc MotionCorr/job002/frames/TS_03_005_9_0_ODD.mrc MotionCorr/job002/frames/TS_03_005_9_0.mrc MotionCorr/job002/frames/TS_03_005_9_0.star     1.609453     0.000000     1.609453 CtfFind/job003/frames/TS_03_005_9_0_PS.ctf:mrc 14373.177073 14825.073712   381.895508   144.214721     0.066536     6.456735     0.729540     0.023057     9.043780    85.276020     8.434828    56.776643     1.361137 
frames/TS_03_008_12.0.mrc            8    12.000500    85.000000    24.000000     -1.50000 MotionCorr/job002/frames/TS_03_008_12_0_PS.mrc MotionCorr/job002/frames/TS_03_008_12_0_EVN.mrc MotionCorr/job002/frames/TS_03_008_12_0_ODD.mrc MotionCorr/job002/frames/TS_03_008_12_0.mrc MotionCorr/job002/frames/TS_03_008_12_0.star     3.120055     0.000000     3.120055 CtfFind/job003/frames/TS_03_008_12_0_PS.ctf:mrc 14360.621286 14849.476845   497.391602   138.862332     0.086996     6.232153     0.920330     0.021175    12.062645    85.281047     7.976472    31.902237     1.284185 
frames/TS_03_009_15.0.mrc            8    15.000700    85.000000    27.000000     -1.50000 MotionCorr/job002/frames/TS_03_009_15_0_PS.mrc MotionCorr/job002/frames/TS_03_009_15_0_EVN.mrc MotionCorr/job002/frames/TS_03_009_15_0_ODD.mrc MotionCorr/job002/frames/TS_03_009_15_0.mrc MotionCorr/job002/frames/TS_03_009_15_0.star     2.301584     0.000000     2.301584 CtfFind/job003/frames/TS_03_009_15_0_PS.ctf:mrc 14434.910908 14877.136668   196.554688   149.585078     0.071106     6.575207     0.769530     0.045229    15.057212    85.291165    10.575330    42.911462     1.251520 
frames/TS_03_012_18.0.mrc            8    18.000300    85.000000    36.000000     -1.50000 MotionCorr/job002/frames/TS_03_012_18_0_PS.mrc MotionCorr/job002/frames/TS_03_012_18_0_EVN.mrc MotionCorr/job002/frames/TS_03_012_18_0_ODD.mrc MotionCorr/job002/frames/TS_03_012_18_0.mrc MotionCorr/job002/frames/TS_03_012_18_0.star     2.646684     0.000000     2.646684 CtfFind/job003/frames/TS_03_012_18_0_PS.ctf:mrc 14388.372215 14821.211338   275.634766   145.300880     0.059765     6.761298     0.713570     0.064221    18.069853    85.302497     6.122232    23.893382     1.185668 
frames/TS_03_013_21.0.mrc            8    21.000900    85.000000    39.000000     -1.50000 MotionCorr/job002/frames/TS_03_013_21_0_PS.mrc MotionCorr/job002/frames/TS_03_013_21_0_EVN.mrc MotionCorr/job002/frames/TS_03_013_21_0_ODD.mrc MotionCorr/job002/frames/TS_03_013_21_0.mrc MotionCorr/job002/frames/TS_03_013_21_0.star     2.705364     0.000000     2.705364 CtfFind/job003/frames/TS_03_013_21_0_PS.ctf:mrc 14583.044803 14890.750383   179.557617   161.452616     0.066225     7.166976     0.886440     0.081215    21.047500    85.314919     7.670537    31.369295     1.111730 
frames/TS_03_016_24.0.mrc            8    24.000600    85.000000    48.000000     -1.50000 MotionCorr/job002/frames/TS_03_016_24_0_PS.mrc MotionCorr/job002/frames/TS_03_016_24_0_EVN.mrc MotionCorr/job002/frames/TS_03_016_24_0_ODD.mrc MotionCorr/job002/frames/TS_03_016_24_0.mrc MotionCorr/job002/frames/TS_03_016_24_0.star     2.614310     0.000000     2.614310 CtfFind/job003/frames/TS_03_016_24_0_PS.ctf:mrc 14372.616493 14914.862375   355.435547   152.041593     0.070183     7.963306     0.569710     0.079934    24.083445    85.321190     5.328124    27.879639     1.031383 
frames/TS_03_017_27.0.mrc            8    27.000700    85.000000    51.000000     -1.50000 MotionCorr/job002/frames/TS_03_017_27_0_PS.mrc MotionCorr/job002/frames/TS_03_017_27_0_EVN.mrc MotionCorr/job002/frames/TS_03_017_27_0_ODD.mrc MotionCorr/job002/frames/TS_03_017_27_0.mrc MotionCorr/job002/frames/TS_03_017_27_0.star     3.655325     0.000000     3.655325 CtfFind/job003/frames/TS_03_017_27_0_PS.ctf:mrc 14247.350536 14817.423280   483.606445   120.045597     0.065192     8.740214     1.192420     0.115872    27.059413    85.333608    10.882561    46.672996     0.952241 
frames/TS_03_020_30.0.mrc            8    30.000800    85.000000    60.000000     -1.50000 MotionCorr/job002/frames/TS_03_020_30_0_PS.mrc MotionCorr/job002/frames/TS_03_020_30_0_EVN.mrc MotionCorr/job002/frames/TS_03_020_30_0_ODD.mrc MotionCorr/job002/frames/TS_03_020_30_0.mrc MotionCorr/job002/frames/TS_03_020_30_0.star     2.856914     0.000000     2.856914 CtfFind/job003/frames/TS_03_020_30_0_PS.ctf:mrc 14535.705535 14910.290322   441.144531   134.643826     0.070988     8.532114     0.472590     0.110236    30.082590    85.357752     -3.48877    41.922303     0.934024 
frames/TS_03_021_33.0.mrc            8    33.001000    85.000000    63.000000     -1.50000 MotionCorr/job002/frames/TS_03_021_33_0_PS.mrc MotionCorr/job002/frames/TS_03_021_33_0_EVN.mrc MotionCorr/job002/frames/TS_03_021_33_0_ODD.mrc MotionCorr/job002/frames/TS_03_021_33_0.mrc MotionCorr/job002/frames/TS_03_021_33_0.star     3.391973     0.000000     3.391973 CtfFind/job003/frames/TS_03_021_33_0_PS.ctf:mrc 14366.493902 14649.240828 9.770000e-04   111.363278     0.070425     9.954133     0.465080     0.104611    33.088719    85.352198    12.588788    74.239179     0.841158 
frames/TS_03_024_36.0.mrc            8    36.000600    85.000000    72.000000     -1.50000 MotionCorr/job002/frames/TS_03_024_36_0_PS.mrc MotionCorr/job002/frames/TS_03_024_36_0_EVN.mrc MotionCorr/job002/frames/TS_03_024_36_0_ODD.mrc MotionCorr/job002/frames/TS_03_024_36_0.mrc MotionCorr/job002/frames/TS_03_024_36_0.star     3.601807     0.000000     3.601807 CtfFind/job003/frames/TS_03_024_36_0_PS.ctf:mrc 14819.518313 15318.489961   218.249023   157.898414     0.090294     8.848118     1.260370     0.164436    36.045097    85.377397     5.174432    72.055002     0.796135 
frames/TS_03_025_39.0.mrc            8    39.000700    85.000000    75.000000     -1.50000 MotionCorr/job002/frames/TS_03_025_39_0_PS.mrc MotionCorr/job002/frames/TS_03_025_39_0_EVN.mrc MotionCorr/job002/frames/TS_03_025_39_0_ODD.mrc MotionCorr/job002/frames/TS_03_025_39_0.mrc MotionCorr/job002/frames/TS_03_025_39_0.star     2.430764     0.000000     2.430764 CtfFind/job003/frames/TS_03_025_39_0_PS.ctf:mrc 14580.239106 14647.749894   131.612305   -161.85800     0.093119    11.026116     0.573320     0.182758    39.040275    85.412038    17.068717   104.437851     0.768223 
frames/TS_03_028_42.0.mrc            8    42.000900    85.000000    84.000000     -1.50000 MotionCorr/job002/frames/TS_03_028_42_0_PS.mrc MotionCorr/job002/frames/TS_03_028_42_0_EVN.mrc MotionCorr/job002/frames/TS_03_028_42_0_ODD.mrc MotionCorr/job002/frames/TS_03_028_42_0.mrc MotionCorr/job002/frames/TS_03_028_42_0.star     4.460118     0.000000     4.460118 CtfFind/job003/frames/TS_03_028_42_0_PS.ctf:mrc 14077.700612 14639.086224   210.600586   178.166058     0.087854    10.859054     0.604700     0.097973    42.067280    85.424189     -0.61567    96.582565     0.765756 
frames/TS_03_029_45.0.mrc            8    45.000500    85.000000    87.000000     -1.50000 MotionCorr/job002/frames/TS_03_029_45_0_PS.mrc MotionCorr/job002/frames/TS_03_029_45_0_EVN.mrc MotionCorr/job002/frames/TS_03_029_45_0_ODD.mrc MotionCorr/job002/frames/TS_03_029_45_0.mrc MotionCorr/job002/frames/TS_03_029_45_0.star     4.061861     0.000000     4.061861 CtfFind/job003/frames/TS_03_029_45_0_PS.ctf:mrc 14554.579955 15396.924901   159.059570   157.023252     0.144842    11.559638     0.594350     0.132894    45.059297    85.421032    17.435038   125.993155     0.621312 
frames/TS_03_032_48.0.mrc            8    47.999600    85.000000    96.000000     -1.50000 MotionCorr/job002/frames/TS_03_032_48_0_PS.mrc MotionCorr/job002/frames/TS_03_032_48_0_EVN.mrc MotionCorr/job002/frames/TS_03_032_48_0_ODD.mrc MotionCorr/job002/frames/TS_03_032_48_0.mrc MotionCorr/job002/frames/TS_03_032_48_0.star     3.930790     0.000000     3.930790 CtfFind/job003/frames/TS_03_032_48_0_PS.ctf:mrc 15101.070008 15184.716347   159.303711   148.399038     0.087733    10.094332     0.806360     0.154658    48.016231    85.486060     -1.25573   116.340648     0.576328 
frames/TS_03_033_51.0.mrc            8    50.999800    85.000000    99.000000     -1.50000 MotionCorr/job002/frames/TS_03_033_51_0_PS.mrc MotionCorr/job002/frames/TS_03_033_51_0_EVN.mrc MotionCorr/job002/frames/TS_03_033_51_0_ODD.mrc MotionCorr/job002/frames/TS_03_033_51_0.mrc MotionCorr/job002/frames/TS_03_033_51_0.star     3.402876     0.000000     3.402876 CtfFind/job003/frames/TS_03_033_51_0_PS.ctf:mrc 14503.430165 14658.871148    48.349609   126.025028     0.104601    25.000000     1.082720     0.194097    51.017635    85.518988    13.353415   146.823102     0.568128 
frames/TS_03_036_54.0.mrc            8    53.996900    85.000000   108.000000     -1.50000 MotionCorr/job002/frames/TS_03_036_54_0_PS.mrc MotionCorr/job002/frames/TS_03_036_54_0_EVN.mrc MotionCorr/job002/frames/TS_03_036_54_0_ODD.mrc MotionCorr/job002/frames/TS_03_036_54_0.mrc MotionCorr/job002/frames/TS_03_036_54_0.star     3.360161     0.000000     3.360161 CtfFind/job003/frames/TS_03_036_54_0_PS.ctf:mrc 14720.968481 15033.321775   104.427734   131.239132     0.133267    25.000000     0.507790     0.168883    54.007699    85.525708     -6.97559   140.082458     0.511961 
frames/TS_03_037_57.0.mrc            8    56.996000    85.000000   111.000000     -1.50000 MotionCorr/job002/frames/TS_03_037_57_0_PS.mrc MotionCorr/job002/frames/TS_03_037_57_0_EVN.mrc MotionCorr/job002/frames/TS_03_037_57_0_ODD.mrc MotionCorr/job002/frames/TS_03_037_57_0.mrc MotionCorr/job002/frames/TS_03_037_57_0.star     3.062455     0.000000     3.062455 CtfFind/job003/frames/TS_03_037_57_0_PS.ctf:mrc 14115.106655 14662.091980   208.624023   140.411355     0.111687     8.532114     0.553800     0.146711    56.930821    85.557296    13.522658   176.306746     0.441473 
frames/TS_03_040_60.0.mrc            8    59.998100    85.000000   120.000000     -1.50000 MotionCorr/job002/frames/TS_03_040_60_0_PS.mrc MotionCorr/job002/frames/TS_03_040_60_0_EVN.mrc MotionCorr/job002/frames/TS_03_040_60_0_ODD.mrc MotionCorr/job002/frames/TS_03_040_60_0.mrc MotionCorr/job002/frames/TS_03_040_60_0.star     4.056148     0.000000     4.056148 CtfFind/job003/frames/TS_03_040_60_0_PS.ctf:mrc 14669.119093 14996.994205    85.911133   132.018053     0.145422    25.000000     0.496110     0.233264    59.954216    85.622159     -4.84701   161.297680     0.432347 
 
