# RELION postprocess; version 5.0-beta-2-commit-a0b145
# --mask mask_fsc.mrc --i Reconstruct/job038/half1.mrc --o PostProcess/job039/postprocess --angpix -1 --pipeline_control PostProcess/job039/ 

# version 50001

data_general

_rlnFinalResolution                               3.550685
_rlnBfactorUsedForSharpening                      0.000000
_rlnUnfilteredMapHalf1                        Reconstruct/job038/half1.mrc
_rlnUnfilteredMapHalf2                        Reconstruct/job038/half2.mrc
_rlnPostprocessedMap                          PostProcess/job039/postprocess.mrc
_rlnParticleBoxFractionSolventMask               10.682012
_rlnMaskName                                  mask_fsc.mrc
_rlnRandomiseFrom                                 7.200000
_rlnPostprocessedMapMasked                    PostProcess/job039/postprocess_masked.mrc
 

# version 50001

data_fsc

loop_ 
_rlnSpectralIndex #1 
_rlnResolution #2 
_rlnAngstromResolution #3 
_rlnFourierShellCorrelationCorrected #4 
_rlnFourierShellCorrelationParticleMaskFraction #5 
_rlnFourierShellCorrelationUnmaskedMaps #6 
_rlnFourierShellCorrelationMaskedMaps #7 
_rlnCorrectedFourierShellCorrelationPhaseRandomizedMaskedMaps #8 
           0     0.001001   999.000000     1.000000     1.000000     1.000000     1.000000     1.000000 
           1     0.003858   259.200012     0.998872     0.999955     0.999514     0.998872     0.998764 
           2     0.007716   129.600006     0.997909     0.999873     0.998650     0.997909     0.997728 
           3     0.011574    86.400004     0.999441     0.999991     0.999906     0.999441     0.999457 
           4     0.015432    64.800003     0.999826     0.999988     0.999868     0.999826     0.999834 
           5     0.019290    51.840002     0.999854     0.999972     0.999702     0.999854     0.999848 
           6     0.023148    43.200002     0.999797     0.999951     0.999474     0.999797     0.999803 
           7     0.027006    37.028573     0.999555     0.999908     0.999015     0.999555     0.999568 
           8     0.030864    32.400002     0.999081     0.999892     0.998845     0.999081     0.999149 
           9     0.034722    28.800001     0.998899     0.999813     0.998006     0.998899     0.999018 
          10     0.038580    25.920001     0.998511     0.999743     0.997262     0.998511     0.998410 
          11     0.042438    23.563637     0.998091     0.999603     0.995776     0.998091     0.997961 
          12     0.046296    21.600001     0.997700     0.999296     0.992528     0.997700     0.997589 
          13     0.050154    19.938462     0.996438     0.998721     0.986504     0.996438     0.996150 
          14     0.054012    18.514287     0.994349     0.999194     0.991456     0.994349     0.994392 
          15     0.057870    17.280001     0.994158     0.998681     0.986093     0.994158     0.994177 
          16     0.061728    16.200001     0.992518     0.998124     0.980315     0.992518     0.992377 
          17     0.065586    15.247060     0.992333     0.998596     0.985204     0.992333     0.992402 
          18     0.069444    14.400001     0.993140     0.998861     0.987968     0.993140     0.993452 
          19     0.073302    13.642106     0.992378     0.998552     0.984750     0.992378     0.992688 
          20     0.077160    12.960001     0.991514     0.997968     0.978714     0.991514     0.991427 
          21     0.081019    12.342858     0.991352     0.997814     0.977130     0.991352     0.991001 
          22     0.084877    11.781819     0.991267     0.997543     0.974360     0.991267     0.990998 
          23     0.088735    11.269566     0.992222     0.997802     0.977007     0.992222     0.992305 
          24     0.092593    10.800001     0.992393     0.998264     0.981766     0.992393     0.992532 
          25     0.096451    10.368000     0.989817     0.998052     0.979580     0.989817     0.989865 
          26     0.100309     9.969231     0.985526     0.995396     0.952918     0.985526     0.985410 
          27     0.104167     9.600000     0.983396     0.996657     0.965412     0.983396     0.983041 
          28     0.108025     9.257143     0.982913     0.996270     0.961546     0.982913     0.982327 
          29     0.111883     8.937931     0.979583     0.993671     0.936296     0.979583     0.978388 
          30     0.115741     8.640000     0.971481     0.990380     0.905991     0.971481     0.969863 
          31     0.119599     8.361291     0.966598     0.990399     0.906164     0.966598     0.966897 
          32     0.123457     8.100000     0.961940     0.989855     0.901323     0.961940     0.962025 
          33     0.127315     7.854546     0.951331     0.983084     0.844736     0.951331     0.950525 
          34     0.131173     7.623530     0.944991     0.983904     0.851243     0.944991     0.941563 
          35     0.135031     7.405715     0.940708     0.984236     0.853910     0.940708     0.923112 
          36     0.138889     7.200000     0.920539     0.975861     0.790991     0.920539     0.840245 
          37     0.142747     7.005406     0.893474     0.957194     0.676728     0.893474     0.624746 
          38     0.146605     6.821053     0.776547     0.950033     0.640281     0.872028     0.427298 
          39     0.150463     6.646154     0.795626     0.959018     0.686586     0.858097     0.305670 
          40     0.154321     6.480000     0.805371     0.948560     0.633201     0.855562     0.257878 
          41     0.158179     6.321952     0.795178     0.947596     0.628642     0.838338     0.210719 
          42     0.162037     6.171429     0.778027     0.938325     0.587503     0.816166     0.171819 
          43     0.165895     6.027907     0.789036     0.927801     0.546077     0.819303     0.143469 
          44     0.169753     5.890909     0.790177     0.933171     0.566576     0.812044     0.104218 
          45     0.173611     5.760000     0.764579     0.920023     0.518516     0.793372     0.122305 
          46     0.177469     5.634783     0.775499     0.923340     0.529977     0.793134     0.078549 
          47     0.181327     5.514894     0.774808     0.918728     0.514154     0.785447     0.047243 
          48     0.185185     5.400000     0.770389     0.920076     0.518696     0.778543     0.035513 
          49     0.189043     5.289796     0.789672     0.930581     0.556530     0.794613     0.023492 
          50     0.192901     5.184000     0.799976     0.930067     0.554572     0.805484     0.027539 
          51     0.196759     5.082353     0.799838     0.934603     0.572261     0.805373     0.027655 
          52     0.200617     4.984616     0.789381     0.922140     0.525783     0.796045     0.031641 
          53     0.204475     4.890566     0.764446     0.905067     0.471600     0.772338     0.033503 
          54     0.208333     4.800000     0.732545     0.906866     0.476865     0.740823     0.030952 
          55     0.212191     4.712727     0.723115     0.905884     0.473980     0.729562     0.023287 
          56     0.216049     4.628572     0.716904     0.883482     0.415145     0.725314     0.029710 
          57     0.219907     4.547369     0.696584     0.886729     0.422919     0.709360     0.042108 
          58     0.223765     4.468966     0.675340     0.860861     0.366769     0.691149     0.048695 
          59     0.227623     4.393221     0.638650     0.841025     0.331217     0.653175     0.040199 
          60     0.231481     4.320000     0.603993     0.819281     0.297951     0.612403     0.021238 
          61     0.235339     4.249181     0.592090     0.771107     0.239762     0.593833     0.004273 
          62     0.239198     4.180645     0.577507     0.773267     0.242006     0.576552     -0.00226 
          63     0.243056     4.114286     0.538457     0.758023     0.226761     0.540089     0.003537 
          64     0.246914     4.050000     0.496930     0.695378     0.176074     0.494757     -0.00432 
          65     0.250772     3.987692     0.452486     0.571117     0.110844     0.445416     -0.01291 
          66     0.254630     3.927273     0.400472     0.576275     0.112940     0.400882 6.824035e-04 
          67     0.258488     3.868657     0.381936     0.621769     0.133369     0.388469     0.010570 
          68     0.262346     3.811765     0.352015     0.579755     0.114377     0.356349     0.006688 
          69     0.266204     3.756522     0.326723     0.476366     0.078481     0.327132 6.077905e-04 
          70     0.270062     3.702857     0.309398     0.498027     0.084986     0.308240     -0.00168 
          71     0.273920     3.650704     0.275994     0.457958     0.073296     0.270016     -0.00826 
          72     0.277778     3.600000     0.241595     0.440074     0.068534     0.233015     -0.01131 
          73     0.281636     3.550685     0.174984     0.348389     0.047666     0.173772     -0.00147 
          74     0.285494     3.502703     0.125365     0.189752     0.021453     0.128361     0.003425 
          75     0.289352     3.456000     0.112315     0.339618     0.045933     0.115802     0.003928 
          76     0.293210     3.410526     0.097096     0.255574     0.031139     0.097045 -5.68826e-05 
          77     0.297068     3.366234     0.078792     0.101497     0.010464     0.074290     -0.00489 
          78     0.300926     3.323077     0.084482     -0.00842 -7.82382e-04     0.081405     -0.00336 
          79     0.304784     3.281013     0.074761     0.150227     0.016280     0.077428     0.002883 
          80     0.308642     3.240000     0.050694     0.102818     0.010615     0.052745     0.002161 
          81     0.312500     3.200000     0.027005     0.024373     0.002333     0.025698     -0.00134 
          82     0.316358     3.160976     0.020448     0.062957     0.006250     0.022074     0.001660 
          83     0.320216     3.122892     0.011863     0.184083     0.020684     0.019094     0.007318 
          84     0.324074     3.085714     -0.00458 -2.60923e-04 -2.44206e-05     -0.00100     0.003564 
          85     0.327932     3.049412     -0.02775     -0.04215     -0.00380     -0.03204     -0.00417 
          86     0.331790     3.013954     -0.04555     -0.09613     -0.00828     -0.05243     -0.00658 
          87     0.335648     2.979310     -0.02908     -0.02653     -0.00243     -0.03577     -0.00650 
          88     0.339506     2.945455     -0.00106     -0.01254     -0.00116     -0.01123     -0.01017 
          89     0.343364     2.912360     0.011353     -0.04525     -0.00407     0.011027 -3.29884e-04 
          90     0.347222     2.880000     -0.00885     0.108894     0.011311     0.005366     0.014090 
          91     0.351080     2.848352     -0.02223     0.098792     0.010158     -0.00897     0.012975 
          92     0.354938     2.817391     0.004342     0.069505     0.006944     -0.00245     -0.00682 
          93     0.358796     2.787097     0.025088     -0.08461     -0.00736     0.008644     -0.01687 
          94     0.362654     2.757447     0.017487     -0.08023     -0.00700     0.011757     -0.00583 
          95     0.366512     2.728421     0.025023     0.133855     0.014261     0.022202     -0.00289 
          96     0.370370     2.700000     0.039475     0.088822     0.009043     0.034666     -0.00501 
 

# version 50001

data_guinier

loop_ 
_rlnResolutionSquared #1 
_rlnLogAmplitudesOriginal #2 
_rlnLogAmplitudesWeighted #3 
    0.000000    -30.10599    -30.10599 
1.488435e-05     -4.76308     -4.76336 
5.953741e-05     -5.86264     -5.86316 
1.339592e-04     -5.98300     -5.98314 
2.381496e-04     -5.93566     -5.93571 
3.721088e-04     -6.34835     -6.34838 
5.358367e-04     -6.78809     -6.78814 
7.293333e-04     -7.08969     -7.08980 
9.525986e-04     -7.19524     -7.19547 
    0.001206     -7.41589     -7.41616 
    0.001488     -7.45314     -7.45352 
    0.001801     -7.67892     -7.67939 
    0.002143     -7.98489     -7.98546 
    0.002515     -8.13772     -8.13861 
    0.002917     -7.91885     -7.92027 
    0.003349     -7.98893     -7.99040 
    0.003810     -8.08576     -8.08764 
    0.004302     -8.15509     -8.15702 
    0.004823     -8.05690     -8.05863 
    0.005373     -8.03799     -8.03990 
    0.005954     -7.96941     -7.97155 
    0.006564     -7.99161     -7.99379 
    0.007204     -8.09981     -8.10200 
    0.007874     -8.06284     -8.06480 
    0.008573     -7.90389     -7.90580 
    0.009303     -7.92250     -7.92507 
    0.010062     -8.19556     -8.19922 
    0.010851     -8.12193     -8.12614 
    0.011669     -8.18878     -8.19311 
    0.012518     -8.34705     -8.35224 
    0.013396     -8.42065     -8.42794 
    0.014304     -8.47569     -8.48425 
    0.015242     -8.55485     -8.56464 
    0.016209     -8.66295     -8.67558 
    0.017206     -8.63322     -8.64757 
    0.018233     -8.64668     -8.66220 
    0.019290     -8.79285     -8.81398 
    0.020377     -8.93792     -8.96687 
    0.021493     -9.01548     -9.08269 
    0.022639     -8.92840     -8.98882 
    0.023815     -8.96850     -9.02554 
    0.025021     -8.97261     -9.03318 
    0.026256     -9.00605     -9.07273 
    0.027521     -9.06161     -9.12435 
    0.028816     -9.00366     -9.06599 
    0.030141     -9.02407     -9.09566 
    0.031495     -9.00249     -9.07009 
    0.032880     -9.00384     -9.07168 
    0.034294     -8.95492     -9.02438 
    0.035737     -8.89718     -8.95969 
    0.037211     -8.87139     -8.93029 
    0.038714     -8.82804     -8.88699 
    0.040247     -8.87236     -8.93497 
    0.041810     -8.91378     -8.98543 
    0.043403     -8.88777     -8.97161 
    0.045025     -8.86934     -8.95693 
    0.046677     -8.91328     -9.00337 
    0.048359     -8.90428     -9.00280 
    0.050071     -8.95540     -9.06311 
    0.051812     -8.99826     -9.12282 
    0.053584     -9.05171     -9.19348 
    0.055385     -9.10783     -9.25582 
    0.057215     -9.10246     -9.25833 
    0.059076     -9.10036     -9.27870 
    0.060966     -9.12294     -9.32773 
    0.062886     -9.19733     -9.43390 
    0.064836     -9.20481     -9.48419 
    0.066816     -9.19151     -9.48794 
    0.068825     -9.20581     -9.53207 
    0.070864     -9.20545     -9.55955 
    0.072933     -9.21043     -9.58520 
    0.075032     -9.20691     -9.62589 
    0.077160     -9.22246     -9.69433 
    0.079319     -9.23819     -9.84377 
    0.081507     -9.25394    -10.00468 
    0.083724     -9.25364    -10.05351 
    0.085972     -9.24533    -10.11112 
    0.088249     -9.26052    -10.22234 
    0.090556     -9.26162    -10.19120 
    0.092893     -9.24914    -10.23535 
    0.095260     -9.25254    -10.42166 
    0.097656     -9.25470    -10.72731 
    0.100082     -9.25304    -10.86153 
    0.102538     -9.22846    -11.10494 
    0.105024     -9.23458    -99.00000 
    0.107539     -9.23587    -99.00000 
    0.110085     -9.23103    -99.00000 
    0.112660     -9.23084    -99.00000 
    0.115264     -9.21616    -99.00000 
    0.117899     -9.20992    -99.00000 
    0.120563     -9.20276    -99.00000 
    0.123257     -9.19444    -99.00000 
    0.125981     -9.19106    -99.00000 
    0.128735     -9.19370    -99.00000 
    0.131518     -9.19497    -99.00000 
    0.134331     -9.19149    -99.00000 
    0.137174     -9.46447    -99.00000 
 
