
# version 50001

data_TS_45

loop_ 
_rlnMicrographMovieName #1 
_rlnTomoTiltMovieFrameCount #2 
_rlnTomoNominalStageTiltAngle #3 
_rlnTomoNominalTiltAxisAngle #4 
_rlnMicrographPreExposure #5 
_rlnTomoNominalDefocus #6 
_rlnCtfPowerSpectrum #7 
_rlnMicrographNameEven #8 
_rlnMicrographNameOdd #9 
_rlnMicrographName #10 
_rlnMicrographMetadata #11 
_rlnAccumMotionTotal #12 
_rlnAccumMotionEarly #13 
_rlnAccumMotionLate #14 
_rlnCtfImage #15 
_rlnDefocusU #16 
_rlnDefocusV #17 
_rlnCtfAstigmatism #18 
_rlnDefocusAngle #19 
_rlnCtfFigureOfMerit #20 
_rlnCtfMaxResolution #21 
_rlnCtfIceRingDensity #22 
_rlnTomoXTilt #23 
_rlnTomoYTilt #24 
_rlnTomoZRot #25 
_rlnTomoXShiftAngst #26 
_rlnTomoYShiftAngst #27 
frames/TS_45_039_-60.0.mrc           10    -59.99910    85.000000   117.000000     -3.00000 MotionCorr/job002/frames/TS_45_039_-60_0_PS.mrc MotionCorr/job002/frames/TS_45_039_-60_0_EVN.mrc MotionCorr/job002/frames/TS_45_039_-60_0_ODD.mrc MotionCorr/job002/frames/TS_45_039_-60_0.mrc MotionCorr/job002/frames/TS_45_039_-60_0.star     8.592580     0.000000     8.592580 CtfFind/job003/frames/TS_45_039_-60_0_PS.ctf:mrc 30042.205078 29985.751953    56.453125    19.129639     0.139703    14.931199     0.689400     0.000000    -60.00000    85.012029     8.648594   159.818738 
frames/TS_45_038_-57.0.mrc           10    -56.99900    85.000000   114.000000     -3.00000 MotionCorr/job002/frames/TS_45_038_-57_0_PS.mrc MotionCorr/job002/frames/TS_45_038_-57_0_EVN.mrc MotionCorr/job002/frames/TS_45_038_-57_0_ODD.mrc MotionCorr/job002/frames/TS_45_038_-57_0.mrc MotionCorr/job002/frames/TS_45_038_-57_0.star     7.885448     0.000000     7.885448 CtfFind/job003/frames/TS_45_038_-57_0_PS.ctf:mrc 30071.470703 30058.990234    12.480469     9.211726     0.153567    16.288582     0.521070     0.000000    -57.00000    85.034556    26.312923   149.543048 
frames/TS_45_035_-54.0.mrc           10    -53.99990    85.000000   105.000000     -3.00000 MotionCorr/job002/frames/TS_45_035_-54_0_PS.mrc MotionCorr/job002/frames/TS_45_035_-54_0_EVN.mrc MotionCorr/job002/frames/TS_45_035_-54_0_ODD.mrc MotionCorr/job002/frames/TS_45_035_-54_0.mrc MotionCorr/job002/frames/TS_45_035_-54_0.star     6.229998     0.000000     6.229998 CtfFind/job003/frames/TS_45_035_-54_0_PS.ctf:mrc 30771.654297 30695.298828    76.355469    -78.28828     0.112120    11.749141     0.622660     0.000000    -54.00000    85.052212    19.023458   147.023647 
frames/TS_45_034_-51.0.mrc           10    -50.99930    85.000000   102.000000     -3.00000 MotionCorr/job002/frames/TS_45_034_-51_0_PS.mrc MotionCorr/job002/frames/TS_45_034_-51_0_EVN.mrc MotionCorr/job002/frames/TS_45_034_-51_0_ODD.mrc MotionCorr/job002/frames/TS_45_034_-51_0.mrc MotionCorr/job002/frames/TS_45_034_-51_0.star     6.296544     0.000000     6.296544 CtfFind/job003/frames/TS_45_034_-51_0_PS.ctf:mrc 31405.406250 31275.429688   129.976562    40.624100     0.121843     9.685102     0.793180     0.000000    -51.00000    85.066480    41.062079   145.920954 
frames/TS_45_031_-48.0.mrc           10    -47.99960    85.000000    93.000000     -3.00000 MotionCorr/job002/frames/TS_45_031_-48_0_PS.mrc MotionCorr/job002/frames/TS_45_031_-48_0_EVN.mrc MotionCorr/job002/frames/TS_45_031_-48_0_ODD.mrc MotionCorr/job002/frames/TS_45_031_-48_0.mrc MotionCorr/job002/frames/TS_45_031_-48_0.star     5.234620     0.000000     5.234620 CtfFind/job003/frames/TS_45_031_-48_0_PS.ctf:mrc 31766.814453 31647.611328   119.203125    31.900883     0.097664     9.954133     0.549880     0.000000    -48.00000    85.078321    22.362108   134.403145 
frames/TS_45_030_-45.0.mrc           10    -45.00000    85.000000    90.000000     -3.00000 MotionCorr/job002/frames/TS_45_030_-45_0_PS.mrc MotionCorr/job002/frames/TS_45_030_-45_0_EVN.mrc MotionCorr/job002/frames/TS_45_030_-45_0_ODD.mrc MotionCorr/job002/frames/TS_45_030_-45_0.mrc MotionCorr/job002/frames/TS_45_030_-45_0.star     5.459822     0.000000     5.459822 CtfFind/job003/frames/TS_45_030_-45_0_PS.ctf:mrc 30630.740234 30369.691406   261.048828    16.263498     0.092576    10.238537     0.809930     0.000000    -45.00000    85.088339    33.695156   129.446155 
frames/TS_45_027_-42.0.mrc           10    -41.99990    85.000000    81.000000     -3.00000 MotionCorr/job002/frames/TS_45_027_-42_0_PS.mrc MotionCorr/job002/frames/TS_45_027_-42_0_EVN.mrc MotionCorr/job002/frames/TS_45_027_-42_0_ODD.mrc MotionCorr/job002/frames/TS_45_027_-42_0.mrc MotionCorr/job002/frames/TS_45_027_-42_0.star     4.854730     0.000000     4.854730 CtfFind/job003/frames/TS_45_027_-42_0_PS.ctf:mrc 30813.306641 30353.759766   459.546875    42.197994     0.093988     9.685102     0.443340     0.000000    -42.00000    85.096988    20.446680   127.660709 
frames/TS_45_026_-39.0.mrc           10    -38.99970    85.000000    78.000000     -3.00000 MotionCorr/job002/frames/TS_45_026_-39_0_PS.mrc MotionCorr/job002/frames/TS_45_026_-39_0_EVN.mrc MotionCorr/job002/frames/TS_45_026_-39_0_ODD.mrc MotionCorr/job002/frames/TS_45_026_-39_0.mrc MotionCorr/job002/frames/TS_45_026_-39_0.star     5.409872     0.000000     5.409872 CtfFind/job003/frames/TS_45_026_-39_0_PS.ctf:mrc 30595.388672 30474.431641   120.957031     -0.41951     0.087948     9.954133     0.472020     0.000000    -39.00000    85.104556    23.219213   118.087588 
frames/TS_45_023_-36.0.mrc           10    -35.99960    85.000000    69.000000     -3.00000 MotionCorr/job002/frames/TS_45_023_-36_0_PS.mrc MotionCorr/job002/frames/TS_45_023_-36_0_EVN.mrc MotionCorr/job002/frames/TS_45_023_-36_0_ODD.mrc MotionCorr/job002/frames/TS_45_023_-36_0.mrc MotionCorr/job002/frames/TS_45_023_-36_0.star     4.774667     0.000000     4.774667 CtfFind/job003/frames/TS_45_023_-36_0_PS.ctf:mrc 30981.564453 30724.353516   257.210938    58.704639     0.089998     8.431736     0.687840     0.000000    -36.00000    85.111267    12.902630   118.947157 
frames/TS_45_022_-33.0.mrc           10    -32.99950    85.000000    66.000000     -3.00000 MotionCorr/job002/frames/TS_45_022_-33_0_PS.mrc MotionCorr/job002/frames/TS_45_022_-33_0_EVN.mrc MotionCorr/job002/frames/TS_45_022_-33_0_ODD.mrc MotionCorr/job002/frames/TS_45_022_-33_0.mrc MotionCorr/job002/frames/TS_45_022_-33_0.star     5.137040     0.000000     5.137040 CtfFind/job003/frames/TS_45_022_-33_0_PS.ctf:mrc 30490.828125 30214.716797   276.111328    36.902802     0.089506     9.685102     0.575870     0.000000    -33.00000    85.117299    11.839242   111.754229 
frames/TS_45_019_-30.0.mrc           10    -29.99980    85.000000    57.000000     -3.00000 MotionCorr/job002/frames/TS_45_019_-30_0_PS.mrc MotionCorr/job002/frames/TS_45_019_-30_0_EVN.mrc MotionCorr/job002/frames/TS_45_019_-30_0_ODD.mrc MotionCorr/job002/frames/TS_45_019_-30_0.mrc MotionCorr/job002/frames/TS_45_019_-30_0.star     4.675718     0.000000     4.675718 CtfFind/job003/frames/TS_45_019_-30_0_PS.ctf:mrc 30362.910156 29873.205078   489.705078    57.535587     0.064687     7.963306     0.592660     0.000000    -30.00000    85.122779     2.793278   113.461238 
frames/TS_45_018_-27.0.mrc           10    -27.00020    85.000000    54.000000     -3.00000 MotionCorr/job002/frames/TS_45_018_-27_0_PS.mrc MotionCorr/job002/frames/TS_45_018_-27_0_EVN.mrc MotionCorr/job002/frames/TS_45_018_-27_0_ODD.mrc MotionCorr/job002/frames/TS_45_018_-27_0.mrc MotionCorr/job002/frames/TS_45_018_-27_0.star     4.807011     0.000000     4.807011 CtfFind/job003/frames/TS_45_018_-27_0_PS.ctf:mrc 30148.781250 29952.824219   195.957031     4.359641     0.075174     8.431736     0.363980     0.000000    -27.00000    85.127799     -0.40337   101.540415 
frames/TS_45_015_-24.0.mrc           10    -24.00010    85.000000    45.000000     -3.00000 MotionCorr/job002/frames/TS_45_015_-24_0_PS.mrc MotionCorr/job002/frames/TS_45_015_-24_0_EVN.mrc MotionCorr/job002/frames/TS_45_015_-24_0_ODD.mrc MotionCorr/job002/frames/TS_45_015_-24_0.mrc MotionCorr/job002/frames/TS_45_015_-24_0.star     3.667000     0.000000     3.667000 CtfFind/job003/frames/TS_45_015_-24_0_PS.ctf:mrc 30544.935547 30241.664062   303.271484    52.136257     0.057985     8.237903     0.658290     0.000000    -24.00000    85.132445     1.782221   113.921475 
frames/TS_45_014_-21.0.mrc           10    -20.99990    85.000000    42.000000     -3.00000 MotionCorr/job002/frames/TS_45_014_-21_0_PS.mrc MotionCorr/job002/frames/TS_45_014_-21_0_EVN.mrc MotionCorr/job002/frames/TS_45_014_-21_0_ODD.mrc MotionCorr/job002/frames/TS_45_014_-21_0.mrc MotionCorr/job002/frames/TS_45_014_-21_0.star     3.955090     0.000000     3.955090 CtfFind/job003/frames/TS_45_014_-21_0_PS.ctf:mrc 30189.931641 29981.109375   208.822266    -60.37737     0.083637     7.166976     0.532380     0.000000    -21.00000    85.136775     -2.02862    95.555944 
frames/TS_45_011_-18.0.mrc           10    -18.00180    85.000000    33.000000     -3.00000 MotionCorr/job002/frames/TS_45_011_-18_0_PS.mrc MotionCorr/job002/frames/TS_45_011_-18_0_EVN.mrc MotionCorr/job002/frames/TS_45_011_-18_0_ODD.mrc MotionCorr/job002/frames/TS_45_011_-18_0.mrc MotionCorr/job002/frames/TS_45_011_-18_0.star     3.986319     0.000000     3.986319 CtfFind/job003/frames/TS_45_011_-18_0_PS.ctf:mrc 30266.986328 30159.025391   107.960938    -80.42982     0.068736     6.636089     0.897040     0.000000    -18.00000    85.140847     2.378700   107.492242 
frames/TS_45_010_-15.0.mrc           10    -15.00370    85.000000    30.000000     -3.00000 MotionCorr/job002/frames/TS_45_010_-15_0_PS.mrc MotionCorr/job002/frames/TS_45_010_-15_0_EVN.mrc MotionCorr/job002/frames/TS_45_010_-15_0_ODD.mrc MotionCorr/job002/frames/TS_45_010_-15_0.mrc MotionCorr/job002/frames/TS_45_010_-15_0.star     3.307242     0.000000     3.307242 CtfFind/job003/frames/TS_45_010_-15_0_PS.ctf:mrc 30364.025391 30104.007812   260.017578    44.802361     0.081297     6.399085     0.697650     0.000000    -15.00000    85.144699     0.914155    86.970819 
frames/TS_45_007_-12.0.mrc           10    -11.99900    85.000000    21.000000     -3.00000 MotionCorr/job002/frames/TS_45_007_-12_0_PS.mrc MotionCorr/job002/frames/TS_45_007_-12_0_EVN.mrc MotionCorr/job002/frames/TS_45_007_-12_0_ODD.mrc MotionCorr/job002/frames/TS_45_007_-12_0.mrc MotionCorr/job002/frames/TS_45_007_-12_0.star     3.492253     0.000000     3.492253 CtfFind/job003/frames/TS_45_007_-12_0_PS.ctf:mrc 30213.833984 29897.224609   316.609375    62.905140     0.065772     6.286821     0.427230     0.000000    -12.00000    85.148368     5.190612   101.233057 
frames/TS_45_006_-9.0.mrc           10     -8.99940    85.000000    18.000000     -3.00000 MotionCorr/job002/frames/TS_45_006_-9_0_PS.mrc MotionCorr/job002/frames/TS_45_006_-9_0_EVN.mrc MotionCorr/job002/frames/TS_45_006_-9_0_ODD.mrc MotionCorr/job002/frames/TS_45_006_-9_0.mrc MotionCorr/job002/frames/TS_45_006_-9_0.star     3.925788     0.000000     3.925788 CtfFind/job003/frames/TS_45_006_-9_0_PS.ctf:mrc 30217.259766 30134.837891    82.421875    82.632309     0.063995     5.643288     0.608890     0.000000     -9.00000    85.151893     2.166368    73.414243 
frames/TS_45_003_-6.0.mrc           10     -6.00027    85.000000     9.000000     -3.00000 MotionCorr/job002/frames/TS_45_003_-6_0_PS.mrc MotionCorr/job002/frames/TS_45_003_-6_0_EVN.mrc MotionCorr/job002/frames/TS_45_003_-6_0_ODD.mrc MotionCorr/job002/frames/TS_45_003_-6_0.mrc MotionCorr/job002/frames/TS_45_003_-6_0.star     3.170520     0.000000     3.170520 CtfFind/job003/frames/TS_45_003_-6_0_PS.ctf:mrc 30279.214844 29848.333984   430.880859    16.535103     0.067746     5.513058     0.559750     0.000000     -6.00000    85.155285     3.654972    88.918611 
frames/TS_45_002_-3.0.mrc           10     -3.00013    85.000000     6.000000     -3.00000 MotionCorr/job002/frames/TS_45_002_-3_0_PS.mrc MotionCorr/job002/frames/TS_45_002_-3_0_EVN.mrc MotionCorr/job002/frames/TS_45_002_-3_0_ODD.mrc MotionCorr/job002/frames/TS_45_002_-3_0.mrc MotionCorr/job002/frames/TS_45_002_-3_0.star     3.314824     0.000000     3.314824 CtfFind/job003/frames/TS_45_002_-3_0_PS.ctf:mrc 30249.507812 29884.433594   365.074219    50.113205     0.069776     6.399085     1.089520     0.000000     -3.00000    85.158592     1.795929    62.872017 
frames/TS_45_000_-0.0.mrc           10     -0.00150    85.000000     0.000000     -3.00000 MotionCorr/job002/frames/TS_45_000_-0_0_PS.mrc MotionCorr/job002/frames/TS_45_000_-0_0_EVN.mrc MotionCorr/job002/frames/TS_45_000_-0_0_ODD.mrc MotionCorr/job002/frames/TS_45_000_-0_0.mrc MotionCorr/job002/frames/TS_45_000_-0_0.star     3.233639     1.442666     1.790974 CtfFind/job003/frames/TS_45_000_-0_0_PS.ctf:mrc 30625.935547 29839.664062   786.271484    47.867737     0.052775     6.456735     0.806020     0.000000     0.000000    85.161812     -6.49266     8.223300 
frames/TS_45_001_3.0.mrc           10     2.999630    85.000000     3.000000     -3.00000 MotionCorr/job002/frames/TS_45_001_3_0_PS.mrc MotionCorr/job002/frames/TS_45_001_3_0_EVN.mrc MotionCorr/job002/frames/TS_45_001_3_0_ODD.mrc MotionCorr/job002/frames/TS_45_001_3_0.mrc MotionCorr/job002/frames/TS_45_001_3_0.star     3.240772     0.000000     3.240772 CtfFind/job003/frames/TS_45_001_3_0_PS.ctf:mrc 30446.968750 29809.410156   637.558594    60.854080     0.058736     5.733581     0.933930     0.000000     3.000000    85.164980     -5.13332    -49.55459 
frames/TS_45_004_6.0.mrc           10     5.997770    85.000000    12.000000     -3.00000 MotionCorr/job002/frames/TS_45_004_6_0_PS.mrc MotionCorr/job002/frames/TS_45_004_6_0_EVN.mrc MotionCorr/job002/frames/TS_45_004_6_0_ODD.mrc MotionCorr/job002/frames/TS_45_004_6_0.mrc MotionCorr/job002/frames/TS_45_004_6_0.star     3.592058     0.000000     3.592058 CtfFind/job003/frames/TS_45_004_6_0_PS.ctf:mrc 30378.050781 29845.648438   532.402344    45.738522     0.076072     5.688076     0.565610     0.000000     6.000000    85.168108    -10.33173    -72.64969 
frames/TS_45_005_9.0.mrc           10     8.996400    85.000000    15.000000     -3.00000 MotionCorr/job002/frames/TS_45_005_9_0_PS.mrc MotionCorr/job002/frames/TS_45_005_9_0_EVN.mrc MotionCorr/job002/frames/TS_45_005_9_0_ODD.mrc MotionCorr/job002/frames/TS_45_005_9_0.mrc MotionCorr/job002/frames/TS_45_005_9_0.star     2.902536     0.000000     2.902536 CtfFind/job003/frames/TS_45_005_9_0_PS.ctf:mrc 30143.105469 29888.982422   254.123047    49.371750     0.066596     6.178427     0.502750     0.000000     9.000000    85.171219     -7.32570    -68.64298 
frames/TS_45_008_12.0.mrc           10    11.998500    85.000000    24.000000     -3.00000 MotionCorr/job002/frames/TS_45_008_12_0_PS.mrc MotionCorr/job002/frames/TS_45_008_12_0_EVN.mrc MotionCorr/job002/frames/TS_45_008_12_0_ODD.mrc MotionCorr/job002/frames/TS_45_008_12_0.mrc MotionCorr/job002/frames/TS_45_008_12_0.star     2.172041     0.000000     2.172041 CtfFind/job003/frames/TS_45_008_12_0_PS.ctf:mrc 30105.773438 30030.029297    75.744141    45.061649     0.081601     6.125620     0.853420     0.000000    12.000000    85.174318     -8.12466    -81.64945 
frames/TS_45_009_15.0.mrc           10    14.999700    85.000000    27.000000     -3.00000 MotionCorr/job002/frames/TS_45_009_15_0_PS.mrc MotionCorr/job002/frames/TS_45_009_15_0_EVN.mrc MotionCorr/job002/frames/TS_45_009_15_0_ODD.mrc MotionCorr/job002/frames/TS_45_009_15_0.mrc MotionCorr/job002/frames/TS_45_009_15_0.star     2.457826     0.000000     2.457826 CtfFind/job003/frames/TS_45_009_15_0_PS.ctf:mrc 30144.271484 29789.445312   354.826172    48.703094     0.074173     5.156098     0.531900     0.000000    15.000000    85.177440     -5.63736    -86.52123 
frames/TS_45_012_18.0.mrc           10    17.999800    85.000000    36.000000     -3.00000 MotionCorr/job002/frames/TS_45_012_18_0_PS.mrc MotionCorr/job002/frames/TS_45_012_18_0_EVN.mrc MotionCorr/job002/frames/TS_45_012_18_0_ODD.mrc MotionCorr/job002/frames/TS_45_012_18_0.mrc MotionCorr/job002/frames/TS_45_012_18_0.star     3.005063     0.000000     3.005063 CtfFind/job003/frames/TS_45_012_18_0_PS.ctf:mrc 30228.208984 29962.244141   265.964844    -36.14284     0.072552     6.825691     0.830460     0.000000    18.000000    85.180580    -10.37361    -92.98789 
frames/TS_45_013_21.0.mrc           10    20.999900    85.000000    39.000000     -3.00000 MotionCorr/job002/frames/TS_45_013_21_0_PS.mrc MotionCorr/job002/frames/TS_45_013_21_0_EVN.mrc MotionCorr/job002/frames/TS_45_013_21_0_ODD.mrc MotionCorr/job002/frames/TS_45_013_21_0.mrc MotionCorr/job002/frames/TS_45_013_21_0.star     2.604872     0.000000     2.604872 CtfFind/job003/frames/TS_45_013_21_0_PS.ctf:mrc 30353.314453 29882.076172   471.238281    75.830811     0.067512     6.761298     0.734180     0.000000    21.000000    85.183777    -10.81098   -108.69239 
frames/TS_45_016_24.0.mrc           10    23.999600    85.000000    48.000000     -3.00000 MotionCorr/job002/frames/TS_45_016_24_0_PS.mrc MotionCorr/job002/frames/TS_45_016_24_0_EVN.mrc MotionCorr/job002/frames/TS_45_016_24_0_ODD.mrc MotionCorr/job002/frames/TS_45_016_24_0.mrc MotionCorr/job002/frames/TS_45_016_24_0.star     2.722364     0.000000     2.722364 CtfFind/job003/frames/TS_45_016_24_0_PS.ctf:mrc 30129.949219 29699.000000   430.949219    36.646492     0.085775     7.465600     0.442520     0.000000    24.000000    85.187042     -6.90685   -108.64188 
frames/TS_45_017_27.0.mrc           10    26.999700    85.000000    51.000000     -3.00000 MotionCorr/job002/frames/TS_45_017_27_0_PS.mrc MotionCorr/job002/frames/TS_45_017_27_0_EVN.mrc MotionCorr/job002/frames/TS_45_017_27_0_ODD.mrc MotionCorr/job002/frames/TS_45_017_27_0.mrc MotionCorr/job002/frames/TS_45_017_27_0.star     2.314864     0.000000     2.314864 CtfFind/job003/frames/TS_45_017_27_0_PS.ctf:mrc 30018.558594 29760.572266   257.986328    57.923775     0.069649     7.313241     0.702630     0.000000    27.000000    85.190389     -9.71048   -121.23551 
frames/TS_45_020_30.0.mrc           10    29.997800    85.000000    60.000000     -3.00000 MotionCorr/job002/frames/TS_45_020_30_0_PS.mrc MotionCorr/job002/frames/TS_45_020_30_0_EVN.mrc MotionCorr/job002/frames/TS_45_020_30_0_ODD.mrc MotionCorr/job002/frames/TS_45_020_30_0.mrc MotionCorr/job002/frames/TS_45_020_30_0.star     3.026604     0.000000     3.026604 CtfFind/job003/frames/TS_45_020_30_0_PS.ctf:mrc 30109.294922 29885.166016   224.128906    64.602974     0.054645     8.431736     0.980070     0.000000    30.000000    85.193856    -11.42637   -122.39584 
frames/TS_45_021_33.0.mrc           10    32.998000    85.000000    63.000000     -3.00000 MotionCorr/job002/frames/TS_45_021_33_0_PS.mrc MotionCorr/job002/frames/TS_45_021_33_0_EVN.mrc MotionCorr/job002/frames/TS_45_021_33_0_ODD.mrc MotionCorr/job002/frames/TS_45_021_33_0.mrc MotionCorr/job002/frames/TS_45_021_33_0.star     3.399792     0.000000     3.399792 CtfFind/job003/frames/TS_45_021_33_0_PS.ctf:mrc 30079.835938 30004.708984    75.126953    -10.61446     0.090675     7.790191     0.718600     0.000000    33.000000    85.197455    -10.72348   -134.11671 
frames/TS_45_024_36.0.mrc           10    35.998100    85.000000    72.000000     -3.00000 MotionCorr/job002/frames/TS_45_024_36_0_PS.mrc MotionCorr/job002/frames/TS_45_024_36_0_EVN.mrc MotionCorr/job002/frames/TS_45_024_36_0_ODD.mrc MotionCorr/job002/frames/TS_45_024_36_0.mrc MotionCorr/job002/frames/TS_45_024_36_0.star     4.101934     0.000000     4.101934 CtfFind/job003/frames/TS_45_024_36_0_PS.ctf:mrc 30239.035156 29891.822266   347.212891    13.560889     0.091184     8.740214     0.584720     0.000000    36.000000    85.201227    -12.71233   -131.33503 
frames/TS_45_025_39.0.mrc           10    38.996700    85.000000    75.000000     -3.00000 MotionCorr/job002/frames/TS_45_025_39_0_PS.mrc MotionCorr/job002/frames/TS_45_025_39_0_EVN.mrc MotionCorr/job002/frames/TS_45_025_39_0_ODD.mrc MotionCorr/job002/frames/TS_45_025_39_0.mrc MotionCorr/job002/frames/TS_45_025_39_0.star     4.374145     0.000000     4.374145 CtfFind/job003/frames/TS_45_025_39_0_PS.ctf:mrc 30575.466797 30194.070312   381.396484    41.413376     0.086312     9.817775     0.477290     0.000000    39.000000    85.205189     -0.21901   -136.32271 
frames/TS_45_028_42.0.mrc           10    41.996900    85.000000    84.000000     -3.00000 MotionCorr/job002/frames/TS_45_028_42_0_PS.mrc MotionCorr/job002/frames/TS_45_028_42_0_EVN.mrc MotionCorr/job002/frames/TS_45_028_42_0_ODD.mrc MotionCorr/job002/frames/TS_45_028_42_0.mrc MotionCorr/job002/frames/TS_45_028_42_0.star     4.127412     0.000000     4.127412 CtfFind/job003/frames/TS_45_028_42_0_PS.ctf:mrc 30345.808594 30103.462891   242.345703    71.896431     0.100596    10.238537     0.839120     0.000000    42.000000    85.209398    -19.87368   -138.98273 
frames/TS_45_029_45.0.mrc           10    44.997000    85.000000    87.000000     -3.00000 MotionCorr/job002/frames/TS_45_029_45_0_PS.mrc MotionCorr/job002/frames/TS_45_029_45_0_EVN.mrc MotionCorr/job002/frames/TS_45_029_45_0_ODD.mrc MotionCorr/job002/frames/TS_45_029_45_0.mrc MotionCorr/job002/frames/TS_45_029_45_0.star     5.118741     0.000000     5.118741 CtfFind/job003/frames/TS_45_029_45_0_PS.ctf:mrc 30211.527344 30074.992188   136.535156    -10.21963     0.109358     9.954133     0.542830     0.000000    45.000000    85.213899     -8.58813   -146.61384 
frames/TS_45_032_48.0.mrc           10    47.996100    85.000000    96.000000     -3.00000 MotionCorr/job002/frames/TS_45_032_48_0_PS.mrc MotionCorr/job002/frames/TS_45_032_48_0_EVN.mrc MotionCorr/job002/frames/TS_45_032_48_0_ODD.mrc MotionCorr/job002/frames/TS_45_032_48_0.mrc MotionCorr/job002/frames/TS_45_032_48_0.star     5.879206     0.000000     5.879206 CtfFind/job003/frames/TS_45_032_48_0_PS.ctf:mrc 29882.470703 29792.289062    90.181641    12.064025     0.137888    11.026116     0.547000     0.000000    48.000000    85.218741    -26.42476   -155.36867 
frames/TS_45_033_51.0.mrc           10    50.996300    85.000000    99.000000     -3.00000 MotionCorr/job002/frames/TS_45_033_51_0_PS.mrc MotionCorr/job002/frames/TS_45_033_51_0_EVN.mrc MotionCorr/job002/frames/TS_45_033_51_0_ODD.mrc MotionCorr/job002/frames/TS_45_033_51_0.mrc MotionCorr/job002/frames/TS_45_033_51_0.star     6.903821     0.000000     6.903821 CtfFind/job003/frames/TS_45_033_51_0_PS.ctf:mrc 30164.636719 29856.281250   308.355469    43.993546     0.122605    11.198400     0.831490     0.000000    51.000000    85.224007    -12.76925   -163.82623 
frames/TS_45_036_54.0.mrc           10    53.996900    85.000000   108.000000     -3.00000 MotionCorr/job002/frames/TS_45_036_54_0_PS.mrc MotionCorr/job002/frames/TS_45_036_54_0_EVN.mrc MotionCorr/job002/frames/TS_45_036_54_0_ODD.mrc MotionCorr/job002/frames/TS_45_036_54_0.mrc MotionCorr/job002/frames/TS_45_036_54_0.star     7.638391     0.000000     7.638391 CtfFind/job003/frames/TS_45_036_54_0_PS.ctf:mrc 29936.853516 29877.523438    59.330078    -43.39851     0.149805    14.626481     0.689700     0.000000    54.000000    85.229768    -22.34774   -168.90483 
frames/TS_45_037_57.0.mrc           10    56.996500    85.000000   111.000000     -3.00000 MotionCorr/job002/frames/TS_45_037_57_0_PS.mrc MotionCorr/job002/frames/TS_45_037_57_0_EVN.mrc MotionCorr/job002/frames/TS_45_037_57_0_ODD.mrc MotionCorr/job002/frames/TS_45_037_57_0.mrc MotionCorr/job002/frames/TS_45_037_57_0.star     9.203906     0.000000     9.203906 CtfFind/job003/frames/TS_45_037_57_0_PS.ctf:mrc 29915.750000 29884.169922    31.580078    65.166412     0.163641    11.198400     0.647150     0.000000    57.000000    85.236162    -17.10083   -176.77073 
frames/TS_45_040_60.0.mrc           10    59.995200    85.000000   120.000000     -3.00000 MotionCorr/job002/frames/TS_45_040_60_0_PS.mrc MotionCorr/job002/frames/TS_45_040_60_0_EVN.mrc MotionCorr/job002/frames/TS_45_040_60_0_ODD.mrc MotionCorr/job002/frames/TS_45_040_60_0.mrc MotionCorr/job002/frames/TS_45_040_60_0.star     9.473847     0.000000     9.473847 CtfFind/job003/frames/TS_45_040_60_0_PS.ctf:mrc 30407.675781 30329.279297    78.396484    33.908779     0.168395    13.522596     0.521260     0.000000    60.000000    85.243331    -28.08096   -185.18556 
 
