# RELION postprocess; version 5.0-beta-2-commit-a0b145
# --mask mask_fsc.mrc --i Reconstruct/job045/half1.mrc --o PostProcess/job046/postprocess --angpix -1 --pipeline_control PostProcess/job046/ 

# version 50001

data_general

_rlnFinalResolution                               3.456000
_rlnBfactorUsedForSharpening                      0.000000
_rlnUnfilteredMapHalf1                        Reconstruct/job045/half1.mrc
_rlnUnfilteredMapHalf2                        Reconstruct/job045/half2.mrc
_rlnPostprocessedMap                          PostProcess/job046/postprocess.mrc
_rlnParticleBoxFractionSolventMask               10.682012
_rlnMaskName                                  mask_fsc.mrc
_rlnRandomiseFrom                                 7.005406
_rlnPostprocessedMapMasked                    PostProcess/job046/postprocess_masked.mrc
 

# version 50001

data_fsc

loop_ 
_rlnSpectralIndex #1 
_rlnResolution #2 
_rlnAngstromResolution #3 
_rlnFourierShellCorrelationCorrected #4 
_rlnFourierShellCorrelationParticleMaskFraction #5 
_rlnFourierShellCorrelationUnmaskedMaps #6 
_rlnFourierShellCorrelationMaskedMaps #7 
_rlnCorrectedFourierShellCorrelationPhaseRandomizedMaskedMaps #8 
           0     0.001001   999.000000     1.000000     1.000000     1.000000     1.000000     1.000000 
           1     0.003858   259.200012     0.999040     0.999956     0.999534     0.999040     0.998912 
           2     0.007716   129.600006     0.998152     0.999868     0.998591     0.998152     0.998027 
           3     0.011574    86.400004     0.999461     0.999991     0.999900     0.999461     0.999537 
           4     0.015432    64.800003     0.999843     0.999984     0.999827     0.999843     0.999849 
           5     0.019290    51.840002     0.999900     0.999973     0.999707     0.999900     0.999901 
           6     0.023148    43.200002     0.999841     0.999947     0.999434     0.999841     0.999845 
           7     0.027006    37.028573     0.999582     0.999888     0.998804     0.999582     0.999604 
           8     0.030864    32.400002     0.999100     0.999881     0.998727     0.999100     0.999188 
           9     0.034722    28.800001     0.998812     0.999792     0.997781     0.998812     0.998901 
          10     0.038580    25.920001     0.998188     0.999710     0.996912     0.998188     0.998182 
          11     0.042438    23.563637     0.997778     0.999588     0.995615     0.997778     0.997717 
          12     0.046296    21.600001     0.997482     0.999281     0.992373     0.997482     0.997378 
          13     0.050154    19.938462     0.996164     0.998662     0.985895     0.996164     0.996020 
          14     0.054012    18.514287     0.994245     0.999152     0.991019     0.994245     0.994246 
          15     0.057870    17.280001     0.994123     0.998642     0.985685     0.994123     0.994007 
          16     0.061728    16.200001     0.992663     0.998221     0.981323     0.992663     0.992783 
          17     0.065586    15.247060     0.992465     0.998654     0.985804     0.992465     0.992866 
          18     0.069444    14.400001     0.993020     0.998781     0.987133     0.993020     0.993286 
          19     0.073302    13.642106     0.992323     0.998468     0.983870     0.992323     0.992462 
          20     0.077160    12.960001     0.991298     0.997929     0.978308     0.991298     0.991146 
          21     0.081019    12.342858     0.990915     0.997564     0.974574     0.990915     0.990742 
          22     0.084877    11.781819     0.990649     0.997411     0.973019     0.990649     0.990677 
          23     0.088735    11.269566     0.991654     0.997684     0.975804     0.991654     0.991808 
          24     0.092593    10.800001     0.992147     0.998137     0.980455     0.992147     0.992300 
          25     0.096451    10.368000     0.989664     0.997891     0.977919     0.989664     0.989826 
          26     0.100309     9.969231     0.985726     0.995495     0.953894     0.985726     0.985693 
          27     0.104167     9.600000     0.983631     0.996582     0.964662     0.983631     0.983304 
          28     0.108025     9.257143     0.983262     0.996230     0.961143     0.983262     0.982617 
          29     0.111883     8.937931     0.979559     0.993910     0.938566     0.979559     0.978558 
          30     0.115741     8.640000     0.971434     0.990834     0.910070     0.971434     0.971004 
          31     0.119599     8.361291     0.966969     0.990995     0.911519     0.966969     0.968702 
          32     0.123457     8.100000     0.961374     0.989905     0.901766     0.961374     0.962623 
          33     0.127315     7.854546     0.952093     0.984367     0.854964     0.952093     0.950582 
          34     0.131173     7.623530     0.948446     0.985598     0.864985     0.948446     0.947508 
          35     0.135031     7.405715     0.944170     0.985578     0.864816     0.944170     0.944657 
          36     0.138889     7.200000     0.924497     0.977965     0.806006     0.924497     0.916371 
          37     0.142747     7.005406     0.897357     0.960424     0.694364     0.897357     0.829625 
          38     0.146605     6.821053     0.880501     0.954428     0.662235     0.880501     0.640982 
          39     0.150463     6.646154     0.786705     0.962108     0.703874     0.871812     0.399011 
          40     0.154321     6.480000     0.805356     0.957438     0.678033     0.867529     0.319416 
          41     0.158179     6.321952     0.809329     0.954842     0.664367     0.853035     0.229221 
          42     0.162037     6.171429     0.787729     0.944861     0.616004     0.831541     0.206398 
          43     0.165895     6.027907     0.796310     0.936059     0.578145     0.835491     0.192358 
          44     0.169753     5.890909     0.805902     0.943054     0.607891     0.828995     0.118976 
          45     0.173611     5.760000     0.785401     0.930493     0.556194     0.808880     0.109408 
          46     0.177469     5.634783     0.785238     0.930263     0.555318     0.802128     0.078649 
          47     0.181327     5.514894     0.787270     0.927351     0.544414     0.798757     0.054001 
          48     0.185185     5.400000     0.792087     0.932303     0.563175     0.804105     0.057802 
          49     0.189043     5.289796     0.817488     0.940218     0.595521     0.822911     0.029709 
          50     0.192901     5.184000     0.826701     0.940175     0.595339     0.830786     0.023572 
          51     0.196759     5.082353     0.828063     0.943471     0.609749     0.832174     0.023909 
          52     0.200617     4.984616     0.816445     0.933585     0.568211     0.820303     0.021018 
          53     0.204475     4.890566     0.793936     0.919646     0.517241     0.797329     0.016469 
          54     0.208333     4.800000     0.773936     0.918417     0.513115     0.778606     0.020660 
          55     0.212191     4.712727     0.764864     0.917411     0.509777     0.771951     0.030141 
          56     0.216049     4.628572     0.757841     0.904380     0.469615     0.764453     0.027304 
          57     0.219907     4.547369     0.745283     0.904941     0.471233     0.748317     0.011911 
          58     0.223765     4.468966     0.728308     0.887552     0.424925     0.733645     0.019646 
          59     0.227623     4.393221     0.699191     0.874014     0.393737     0.704229     0.016750 
          60     0.231481     4.320000     0.661774     0.847319     0.341901     0.664105     0.006893 
          61     0.235339     4.249181     0.627314     0.807841     0.282414     0.629849     0.006801 
          62     0.239198     4.180645     0.603187     0.794045     0.265207     0.603472 7.202510e-04 
          63     0.243056     4.114286     0.571189     0.796524     0.268185     0.572923     0.004044 
          64     0.246914     4.050000     0.527823     0.742832     0.212852     0.532557     0.010026 
          65     0.250772     3.987692     0.475306     0.663464     0.155803     0.483130     0.014912 
          66     0.254630     3.927273     0.433015     0.647989     0.146997     0.447269     0.025140 
          67     0.258488     3.868657     0.411793     0.632338     0.138680     0.425512     0.023324 
          68     0.262346     3.811765     0.365678     0.564257     0.108119     0.381051     0.024235 
          69     0.266204     3.756522     0.335316     0.525607     0.093975     0.348598     0.019982 
          70     0.270062     3.702857     0.328984     0.530243     0.095570     0.334932     0.008864 
          71     0.273920     3.650704     0.311838     0.455186     0.072541     0.316917     0.007380 
          72     0.277778     3.600000     0.264830     0.334801     0.044997     0.271345     0.008862 
          73     0.281636     3.550685     0.203279     0.337485     0.045517     0.203991 8.935500e-04 
          74     0.285494     3.502703     0.165963     0.261739     0.032124     0.163089     -0.00345 
          75     0.289352     3.456000     0.151286     0.285347     0.036032     0.152441     0.001360 
          76     0.293210     3.410526     0.116046     0.246442     0.029706     0.122381     0.007167 
          77     0.297068     3.366234     0.078700     0.224851     0.026438     0.095841     0.018605 
          78     0.300926     3.323077     0.073805     -0.17568     -0.01419     0.089272     0.016700 
          79     0.304784     3.281013     0.059186     -0.02377     -0.00218     0.070149     0.011654 
          80     0.308642     3.240000     0.043233     0.012363     0.001171     0.050380     0.007470 
          81     0.312500     3.200000     0.037405     0.023968     0.002294     0.043321     0.006146 
          82     0.316358     3.160976     0.066913     0.028878     0.002776     0.067063 1.609482e-04 
          83     0.320216     3.122892     0.070596     0.087229     0.008867     0.069656     -0.00101 
          84     0.324074     3.085714     0.029715     0.092211     0.009420     0.030958     0.001281 
          85     0.327932     3.049412     -0.01132     0.262126     0.032186     -0.01254     -0.00121 
          86     0.331790     3.013954     -0.02030     0.073743     0.007398     -0.02162     -0.00130 
          87     0.335648     2.979310 6.800992e-04     -0.00992 -9.20563e-04     -0.00314     -0.00383 
          88     0.339506     2.945455     0.007139     0.083110     0.008414     0.006810 -3.31139e-04 
          89     0.343364     2.912360     -0.00640     0.073984     0.007424     -0.00337     0.003009 
          90     0.347222     2.880000     -0.01349     -0.07087     -0.00623     -0.01243     0.001046 
          91     0.351080     2.848352     -0.01659     0.036034     0.003487     -0.00805     0.008402 
          92     0.354938     2.817391     -0.00467     0.012951     0.001227     0.005722     0.010349 
          93     0.358796     2.787097     -0.01440     -0.11168     -0.00949     -0.00489     0.009375 
          94     0.362654     2.757447     -0.00542     -0.02814     -0.00257     -0.00175     0.003655 
          95     0.366512     2.728421     0.013998     0.134442     0.014332     0.017201     0.003248 
          96     0.370370     2.700000     0.021154     0.140587     0.015083     0.022675     0.001555 
 

# version 50001

data_guinier

loop_ 
_rlnResolutionSquared #1 
_rlnLogAmplitudesOriginal #2 
_rlnLogAmplitudesWeighted #3 
    0.000000    -26.92158    -26.92158 
1.488435e-05     -4.76385     -4.76409 
5.953741e-05     -5.86435     -5.86481 
1.339592e-04     -5.98177     -5.98191 
2.381496e-04     -5.93251     -5.93254 
3.721088e-04     -6.34412     -6.34415 
5.358367e-04     -6.78303     -6.78307 
7.293333e-04     -7.08022     -7.08032 
9.525986e-04     -7.18859     -7.18881 
    0.001206     -7.40769     -7.40798 
    0.001488     -7.44348     -7.44394 
    0.001801     -7.66550     -7.66605 
    0.002143     -7.97201     -7.97265 
    0.002515     -8.12684     -8.12780 
    0.002917     -7.91009     -7.91154 
    0.003349     -7.97566     -7.97714 
    0.003810     -8.06190     -8.06374 
    0.004302     -8.13057     -8.13247 
    0.004823     -8.04142     -8.04317 
    0.005373     -8.01784     -8.01977 
    0.005954     -7.94705     -7.94924 
    0.006564     -7.97529     -7.97757 
    0.007204     -8.07558     -8.07794 
    0.007874     -8.03119     -8.03329 
    0.008573     -7.88008     -7.88205 
    0.009303     -7.89731     -7.89992 
    0.010062     -8.16832     -8.17193 
    0.010851     -8.09595     -8.10009 
    0.011669     -8.16380     -8.16803 
    0.012518     -8.31844     -8.32363 
    0.013396     -8.39106     -8.39836 
    0.014304     -8.43994     -8.44841 
    0.015242     -8.52729     -8.53724 
    0.016209     -8.63300     -8.64542 
    0.017206     -8.59722     -8.61063 
    0.018233     -8.61420     -8.62876 
    0.019290     -8.75762     -8.77763 
    0.020377     -8.90137     -8.92918 
    0.021493     -8.97636     -9.00919 
    0.022639     -8.89095     -8.95452 
    0.023815     -8.91889     -8.97593 
    0.025021     -8.93128     -8.98696 
    0.026256     -8.96415     -9.02735 
    0.027521     -9.02038     -9.08056 
    0.028816     -8.94397     -9.00083 
    0.030141     -8.97443     -9.03846 
    0.031495     -8.96031     -9.02440 
    0.032880     -8.94880     -9.01217 
    0.034294     -8.89717     -8.95883 
    0.035737     -8.83097     -8.88388 
    0.037211     -8.80378     -8.85362 
    0.038714     -8.77180     -8.82119 
    0.040247     -8.81438     -8.86765 
    0.041810     -8.84438     -8.90539 
    0.043403     -8.82938     -8.89754 
    0.045025     -8.80662     -8.87811 
    0.046677     -8.83832     -8.91243 
    0.048359     -8.82972     -8.90860 
    0.050071     -8.87733     -8.96285 
    0.051812     -8.91855     -9.01597 
    0.053584     -8.97655     -9.09033 
    0.055385     -9.03399     -9.16404 
    0.057215     -9.03898     -9.18117 
    0.059076     -9.03975     -9.19911 
    0.060966     -9.06872     -9.25357 
    0.062886     -9.13549     -9.35524 
    0.064836     -9.14378     -9.39558 
    0.066816     -9.14558     -9.41505 
    0.068825     -9.17495     -9.48720 
    0.070864     -9.16960     -9.51395 
    0.072933     -9.17013     -9.52163 
    0.075032     -9.19463     -9.56641 
    0.077160     -9.20961     -9.64484 
    0.079319     -9.21984     -9.76238 
    0.081507     -9.22793     -9.85612 
    0.083724     -9.24292     -9.91107 
    0.085972     -9.23416    -10.01936 
    0.088249     -9.24713    -10.20949 
    0.090556     -9.26867    -10.26087 
    0.092893     -9.26035    -10.35607 
    0.095260     -9.25940    -10.50456 
    0.097656     -9.24552    -10.56028 
    0.100082     -9.24310    -10.28109 
    0.102538     -9.23056    -10.24349 
    0.105024     -9.22954    -10.65566 
    0.107539     -9.21851    -99.00000 
    0.110085     -9.21811    -99.00000 
    0.112660     -9.21581    -99.00000 
    0.115264     -9.21658    -99.00000 
    0.117899     -9.20546    -99.00000 
    0.120563     -9.20952    -99.00000 
    0.123257     -9.20138    -99.00000 
    0.125981     -9.20402    -99.00000 
    0.128735     -9.19949    -99.00000 
    0.131518     -9.19299    -99.00000 
    0.134331     -9.19043    -99.00000 
    0.137174     -9.45805    -99.00000 
 
