# Created by the starfile Python package (version 0.4.12) at 13:41:46 on 15/03/2024

data_TS_43

loop_
_rlnMicrographMovieName #1
_rlnTomoTiltMovieFrameCount #2
_rlnTomoNominalStageTiltAngle #3
_rlnTomoNominalTiltAxisAngle #4
_rlnMicrographPreExposure #5
_rlnTomoNominalDefocus #6
_rlnCtfPowerSpectrum #7
_rlnMicrographNameEven #8
_rlnMicrographNameOdd #9
_rlnMicrographName #10
_rlnMicrographMetadata #11
_rlnAccumMotionTotal #12
_rlnAccumMotionEarly #13
_rlnAccumMotionLate #14
_rlnCtfImage #15
_rlnDefocusU #16
_rlnDefocusV #17
_rlnCtfAstigmatism #18
_rlnDefocusAngle #19
_rlnCtfFigureOfMerit #20
_rlnCtfMaxResolution #21
_rlnCtfIceRingDensity #22
frames/TS_43_039_-60.0.mrc	10	-59.999100	85.000000	117.000000	-2.500000	MotionCorr/job002/frames/TS_43_039_-60_0_PS.mrc	MotionCorr/job002/frames/TS_43_039_-60_0_EVN.mrc	MotionCorr/job002/frames/TS_43_039_-60_0_ODD.mrc	MotionCorr/job002/frames/TS_43_039_-60_0.mrc	MotionCorr/job002/frames/TS_43_039_-60_0.star	16.206940	0.000000	16.206940	CtfFind/job003/frames/TS_43_039_-60_0_PS.ctf:mrc	27333.363281	27260.451172	72.912109	63.189453	0.101234	14.931199	0.610390
frames/TS_43_038_-57.0.mrc	10	-56.999000	85.000000	114.000000	-2.500000	MotionCorr/job002/frames/TS_43_038_-57_0_PS.mrc	MotionCorr/job002/frames/TS_43_038_-57_0_EVN.mrc	MotionCorr/job002/frames/TS_43_038_-57_0_ODD.mrc	MotionCorr/job002/frames/TS_43_038_-57_0.mrc	MotionCorr/job002/frames/TS_43_038_-57_0.star	15.545098	0.000000	15.545098	CtfFind/job003/frames/TS_43_038_-57_0_PS.ctf:mrc	26677.021484	26528.617188	148.404297	-34.971820	0.118246	13.782646	0.824470
frames/TS_43_035_-54.0.mrc	10	-53.999400	85.000000	105.000000	-2.500000	MotionCorr/job002/frames/TS_43_035_-54_0_PS.mrc	MotionCorr/job002/frames/TS_43_035_-54_0_EVN.mrc	MotionCorr/job002/frames/TS_43_035_-54_0_ODD.mrc	MotionCorr/job002/frames/TS_43_035_-54_0.mrc	MotionCorr/job002/frames/TS_43_035_-54_0.star	9.453412	0.000000	9.453412	CtfFind/job003/frames/TS_43_035_-54_0_PS.ctf:mrc	27108.912109	26920.558594	188.353516	-26.997390	0.108487	14.052894	0.358210
frames/TS_43_034_-51.0.mrc	10	-51.000300	85.000000	102.000000	-2.500000	MotionCorr/job002/frames/TS_43_034_-51_0_PS.mrc	MotionCorr/job002/frames/TS_43_034_-51_0_EVN.mrc	MotionCorr/job002/frames/TS_43_034_-51_0_ODD.mrc	MotionCorr/job002/frames/TS_43_034_-51_0.mrc	MotionCorr/job002/frames/TS_43_034_-51_0.star	8.636927	0.000000	8.636927	CtfFind/job003/frames/TS_43_034_-51_0_PS.ctf:mrc	26469.873047	26382.740234	87.132812	74.460388	0.100523	15.580382	0.593780
frames/TS_43_031_-48.0.mrc	10	-47.999100	85.000000	93.000000	-2.500000	MotionCorr/job002/frames/TS_43_031_-48_0_PS.mrc	MotionCorr/job002/frames/TS_43_031_-48_0_EVN.mrc	MotionCorr/job002/frames/TS_43_031_-48_0_ODD.mrc	MotionCorr/job002/frames/TS_43_031_-48_0.mrc	MotionCorr/job002/frames/TS_43_031_-48_0.star	7.402671	0.000000	7.402671	CtfFind/job003/frames/TS_43_031_-48_0_PS.ctf:mrc	26314.369141	26268.205078	46.164062	-89.059580	0.100539	10.696979	0.562810
frames/TS_43_030_-45.0.mrc	10	-45.000000	85.000000	90.000000	-2.500000	MotionCorr/job002/frames/TS_43_030_-45_0_PS.mrc	MotionCorr/job002/frames/TS_43_030_-45_0_EVN.mrc	MotionCorr/job002/frames/TS_43_030_-45_0_ODD.mrc	MotionCorr/job002/frames/TS_43_030_-45_0.mrc	MotionCorr/job002/frames/TS_43_030_-45_0.star	6.843554	0.000000	6.843554	CtfFind/job003/frames/TS_43_030_-45_0_PS.ctf:mrc	25881.615234	25825.328125	56.287109	-46.967690	0.106071	11.376152	0.693640
frames/TS_43_027_-42.0.mrc	10	-41.999400	85.000000	81.000000	-2.500000	MotionCorr/job002/frames/TS_43_027_-42_0_PS.mrc	MotionCorr/job002/frames/TS_43_027_-42_0_EVN.mrc	MotionCorr/job002/frames/TS_43_027_-42_0_ODD.mrc	MotionCorr/job002/frames/TS_43_027_-42_0.mrc	MotionCorr/job002/frames/TS_43_027_-42_0.star	6.120841	0.000000	6.120841	CtfFind/job003/frames/TS_43_027_-42_0_PS.ctf:mrc	26105.927734	26014.757812	91.169922	57.157742	0.092008	10.859054	0.487080
frames/TS_43_026_-39.0.mrc	10	-38.999700	85.000000	78.000000	-2.500000	MotionCorr/job002/frames/TS_43_026_-39_0_PS.mrc	MotionCorr/job002/frames/TS_43_026_-39_0_EVN.mrc	MotionCorr/job002/frames/TS_43_026_-39_0_ODD.mrc	MotionCorr/job002/frames/TS_43_026_-39_0.mrc	MotionCorr/job002/frames/TS_43_026_-39_0.star	5.769808	0.000000	5.769808	CtfFind/job003/frames/TS_43_026_-39_0_PS.ctf:mrc	26031.378906	25641.300781	390.078125	-76.239900	0.077061	10.539670	0.682360
frames/TS_43_023_-36.0.mrc	10	-36.000100	85.000000	69.000000	-2.500000	MotionCorr/job002/frames/TS_43_023_-36_0_PS.mrc	MotionCorr/job002/frames/TS_43_023_-36_0_EVN.mrc	MotionCorr/job002/frames/TS_43_023_-36_0_ODD.mrc	MotionCorr/job002/frames/TS_43_023_-36_0.mrc	MotionCorr/job002/frames/TS_43_023_-36_0.star	4.895332	0.000000	4.895332	CtfFind/job003/frames/TS_43_023_-36_0_PS.ctf:mrc	26134.748047	25755.009766	379.738281	73.866158	0.080132	9.817775	0.546200
frames/TS_43_022_-33.0.mrc	10	-33.000000	85.000000	66.000000	-2.500000	MotionCorr/job002/frames/TS_43_022_-33_0_PS.mrc	MotionCorr/job002/frames/TS_43_022_-33_0_EVN.mrc	MotionCorr/job002/frames/TS_43_022_-33_0_ODD.mrc	MotionCorr/job002/frames/TS_43_022_-33_0.mrc	MotionCorr/job002/frames/TS_43_022_-33_0.star	3.799344	0.000000	3.799344	CtfFind/job003/frames/TS_43_022_-33_0_PS.ctf:mrc	25833.119141	25257.369141	575.750000	28.135786	0.060713	9.555968	0.468210
frames/TS_43_019_-30.0.mrc	10	-29.999800	85.000000	57.000000	-2.500000	MotionCorr/job002/frames/TS_43_019_-30_0_PS.mrc	MotionCorr/job002/frames/TS_43_019_-30_0_EVN.mrc	MotionCorr/job002/frames/TS_43_019_-30_0_ODD.mrc	MotionCorr/job002/frames/TS_43_019_-30_0.mrc	MotionCorr/job002/frames/TS_43_019_-30_0.star	5.360931	0.000000	5.360931	CtfFind/job003/frames/TS_43_019_-30_0_PS.ctf:mrc	25660.326172	25099.560547	560.765625	-72.802900	0.043107	9.685102	0.494240
frames/TS_43_018_-27.0.mrc	10	-27.000700	85.000000	54.000000	-2.500000	MotionCorr/job002/frames/TS_43_018_-27_0_PS.mrc	MotionCorr/job002/frames/TS_43_018_-27_0_EVN.mrc	MotionCorr/job002/frames/TS_43_018_-27_0_ODD.mrc	MotionCorr/job002/frames/TS_43_018_-27_0.mrc	MotionCorr/job002/frames/TS_43_018_-27_0.star	3.866844	0.000000	3.866844	CtfFind/job003/frames/TS_43_018_-27_0_PS.ctf:mrc	25329.281250	25175.896484	153.384766	84.075203	0.061933	8.958720	0.649010
frames/TS_43_015_-24.0.mrc	10	-24.000600	85.000000	45.000000	-2.500000	MotionCorr/job002/frames/TS_43_015_-24_0_PS.mrc	MotionCorr/job002/frames/TS_43_015_-24_0_EVN.mrc	MotionCorr/job002/frames/TS_43_015_-24_0_ODD.mrc	MotionCorr/job002/frames/TS_43_015_-24_0.mrc	MotionCorr/job002/frames/TS_43_015_-24_0.star	4.421890	0.000000	4.421890	CtfFind/job003/frames/TS_43_015_-24_0_PS.ctf:mrc	25751.851562	25568.882812	182.968750	78.089615	0.049548	7.624442	0.529180
frames/TS_43_014_-21.0.mrc	10	-21.001400	85.000000	42.000000	-2.500000	MotionCorr/job002/frames/TS_43_014_-21_0_PS.mrc	MotionCorr/job002/frames/TS_43_014_-21_0_EVN.mrc	MotionCorr/job002/frames/TS_43_014_-21_0_ODD.mrc	MotionCorr/job002/frames/TS_43_014_-21_0.mrc	MotionCorr/job002/frames/TS_43_014_-21_0.star	4.970441	0.000000	4.970441	CtfFind/job003/frames/TS_43_014_-21_0_PS.ctf:mrc	25641.074219	25310.353516	330.720703	22.011524	0.066622	6.825691	0.626310
frames/TS_43_011_-18.0.mrc	10	-18.003300	85.000000	33.000000	-2.500000	MotionCorr/job002/frames/TS_43_011_-18_0_PS.mrc	MotionCorr/job002/frames/TS_43_011_-18_0_EVN.mrc	MotionCorr/job002/frames/TS_43_011_-18_0_ODD.mrc	MotionCorr/job002/frames/TS_43_011_-18_0.mrc	MotionCorr/job002/frames/TS_43_011_-18_0.star	5.192582	0.000000	5.192582	CtfFind/job003/frames/TS_43_011_-18_0_PS.ctf:mrc	25758.099609	25284.208984	473.890625	36.509163	0.068067	6.698108	0.651080
frames/TS_43_010_-15.0.mrc	10	-15.003700	85.000000	30.000000	-2.500000	MotionCorr/job002/frames/TS_43_010_-15_0_PS.mrc	MotionCorr/job002/frames/TS_43_010_-15_0_EVN.mrc	MotionCorr/job002/frames/TS_43_010_-15_0_ODD.mrc	MotionCorr/job002/frames/TS_43_010_-15_0.mrc	MotionCorr/job002/frames/TS_43_010_-15_0.star	3.478029	0.000000	3.478029	CtfFind/job003/frames/TS_43_010_-15_0_PS.ctf:mrc	25252.498047	25163.511719	88.986328	-78.555900	0.061613	6.825691	0.625790
frames/TS_43_007_-12.0.mrc	10	-11.999000	85.000000	21.000000	-2.500000	MotionCorr/job002/frames/TS_43_007_-12_0_PS.mrc	MotionCorr/job002/frames/TS_43_007_-12_0_EVN.mrc	MotionCorr/job002/frames/TS_43_007_-12_0_ODD.mrc	MotionCorr/job002/frames/TS_43_007_-12_0.mrc	MotionCorr/job002/frames/TS_43_007_-12_0.star	3.865264	0.000000	3.865264	CtfFind/job003/frames/TS_43_007_-12_0_PS.ctf:mrc	25744.876953	25156.515625	588.361328	33.976234	0.049256	7.096016	0.756730
frames/TS_43_006_-9.0.mrc	10	-8.998900	85.000000	18.000000	-2.500000	MotionCorr/job002/frames/TS_43_006_-9_0_PS.mrc	MotionCorr/job002/frames/TS_43_006_-9_0_EVN.mrc	MotionCorr/job002/frames/TS_43_006_-9_0_ODD.mrc	MotionCorr/job002/frames/TS_43_006_-9_0.mrc	MotionCorr/job002/frames/TS_43_006_-9_0.star	3.285717	0.000000	3.285717	CtfFind/job003/frames/TS_43_006_-9_0_PS.ctf:mrc	25357.693359	25019.746094	337.947266	58.706074	0.068861	5.599200	0.734410
frames/TS_43_003_-6.0.mrc	10	-5.999270	85.000000	9.000000	-2.500000	MotionCorr/job002/frames/TS_43_003_-6_0_PS.mrc	MotionCorr/job002/frames/TS_43_003_-6_0_EVN.mrc	MotionCorr/job002/frames/TS_43_003_-6_0_ODD.mrc	MotionCorr/job002/frames/TS_43_003_-6_0.mrc	MotionCorr/job002/frames/TS_43_003_-6_0.star	3.384419	0.000000	3.384419	CtfFind/job003/frames/TS_43_003_-6_0_PS.ctf:mrc	25650.921875	25062.189453	588.732422	38.744617	0.061944	6.125620	0.777030
frames/TS_43_002_-3.0.mrc	10	-2.999130	85.000000	6.000000	-2.500000	MotionCorr/job002/frames/TS_43_002_-3_0_PS.mrc	MotionCorr/job002/frames/TS_43_002_-3_0_EVN.mrc	MotionCorr/job002/frames/TS_43_002_-3_0_ODD.mrc	MotionCorr/job002/frames/TS_43_002_-3_0.mrc	MotionCorr/job002/frames/TS_43_002_-3_0.star	3.167235	0.000000	3.167235	CtfFind/job003/frames/TS_43_002_-3_0_PS.ctf:mrc	25321.992188	25209.042969	112.949219	39.283577	0.066759	5.826810	0.582620
frames/TS_43_000_0.0.mrc	10	0.000000	85.000000	0.000000	-2.500000	MotionCorr/job002/frames/TS_43_000_0_0_PS.mrc	MotionCorr/job002/frames/TS_43_000_0_0_EVN.mrc	MotionCorr/job002/frames/TS_43_000_0_0_ODD.mrc	MotionCorr/job002/frames/TS_43_000_0_0.mrc	MotionCorr/job002/frames/TS_43_000_0_0.star	2.810945	0.896793	1.914152	CtfFind/job003/frames/TS_43_000_0_0_PS.ctf:mrc	25325.205078	25092.406250	232.798828	59.150311	0.062880	5.269835	0.692870
frames/TS_43_001_3.0.mrc	10	3.000130	85.000000	3.000000	-2.500000	MotionCorr/job002/frames/TS_43_001_3_0_PS.mrc	MotionCorr/job002/frames/TS_43_001_3_0_EVN.mrc	MotionCorr/job002/frames/TS_43_001_3_0_ODD.mrc	MotionCorr/job002/frames/TS_43_001_3_0.mrc	MotionCorr/job002/frames/TS_43_001_3_0.star	3.184465	0.000000	3.184465	CtfFind/job003/frames/TS_43_001_3_0_PS.ctf:mrc	25257.375000	25078.517578	178.857422	35.837433	0.064948	5.688076	0.706130
frames/TS_43_004_6.0.mrc	10	5.999270	85.000000	12.000000	-2.500000	MotionCorr/job002/frames/TS_43_004_6_0_PS.mrc	MotionCorr/job002/frames/TS_43_004_6_0_EVN.mrc	MotionCorr/job002/frames/TS_43_004_6_0_ODD.mrc	MotionCorr/job002/frames/TS_43_004_6_0.mrc	MotionCorr/job002/frames/TS_43_004_6_0.star	2.978147	0.000000	2.978147	CtfFind/job003/frames/TS_43_004_6_0_PS.ctf:mrc	25260.033203	24977.166016	282.867188	14.817953	0.076066	5.826810	0.567600
frames/TS_43_005_9.0.mrc	10	8.998400	85.000000	15.000000	-2.500000	MotionCorr/job002/frames/TS_43_005_9_0_PS.mrc	MotionCorr/job002/frames/TS_43_005_9_0_EVN.mrc	MotionCorr/job002/frames/TS_43_005_9_0_ODD.mrc	MotionCorr/job002/frames/TS_43_005_9_0.mrc	MotionCorr/job002/frames/TS_43_005_9_0.star	3.477681	0.000000	3.477681	CtfFind/job003/frames/TS_43_005_9_0_PS.ctf:mrc	25250.242188	25083.763672	166.478516	24.178097	0.070367	5.923120	0.569470
frames/TS_43_008_12.0.mrc	10	11.999000	85.000000	24.000000	-2.500000	MotionCorr/job002/frames/TS_43_008_12_0_PS.mrc	MotionCorr/job002/frames/TS_43_008_12_0_EVN.mrc	MotionCorr/job002/frames/TS_43_008_12_0_ODD.mrc	MotionCorr/job002/frames/TS_43_008_12_0.mrc	MotionCorr/job002/frames/TS_43_008_12_0.star	3.335631	0.000000	3.335631	CtfFind/job003/frames/TS_43_008_12_0_PS.ctf:mrc	25454.476562	25110.644531	343.832031	39.203411	0.074413	6.515432	0.543050
frames/TS_43_009_15.0.mrc	10	15.000200	85.000000	27.000000	-2.500000	MotionCorr/job002/frames/TS_43_009_15_0_PS.mrc	MotionCorr/job002/frames/TS_43_009_15_0_EVN.mrc	MotionCorr/job002/frames/TS_43_009_15_0_ODD.mrc	MotionCorr/job002/frames/TS_43_009_15_0.mrc	MotionCorr/job002/frames/TS_43_009_15_0.star	3.416277	0.000000	3.416277	CtfFind/job003/frames/TS_43_009_15_0_PS.ctf:mrc	25308.568359	24915.974609	392.593750	66.101028	0.086109	6.456735	0.724480
frames/TS_43_012_18.0.mrc	10	18.000800	85.000000	36.000000	-2.500000	MotionCorr/job002/frames/TS_43_012_18_0_PS.mrc	MotionCorr/job002/frames/TS_43_012_18_0_EVN.mrc	MotionCorr/job002/frames/TS_43_012_18_0_ODD.mrc	MotionCorr/job002/frames/TS_43_012_18_0.mrc	MotionCorr/job002/frames/TS_43_012_18_0.star	3.552104	0.000000	3.552104	CtfFind/job003/frames/TS_43_012_18_0_PS.ctf:mrc	25226.433594	24999.230469	227.203125	8.792658	0.083819	6.891323	0.691180
frames/TS_43_013_21.0.mrc	10	20.999900	85.000000	39.000000	-2.500000	MotionCorr/job002/frames/TS_43_013_21_0_PS.mrc	MotionCorr/job002/frames/TS_43_013_21_0_EVN.mrc	MotionCorr/job002/frames/TS_43_013_21_0_ODD.mrc	MotionCorr/job002/frames/TS_43_013_21_0.mrc	MotionCorr/job002/frames/TS_43_013_21_0.star	3.772947	0.000000	3.772947	CtfFind/job003/frames/TS_43_013_21_0_PS.ctf:mrc	25484.169922	24867.708984	616.460938	65.791451	0.071382	7.313241	0.628430
frames/TS_43_016_24.0.mrc	10	23.999600	85.000000	48.000000	-2.500000	MotionCorr/job002/frames/TS_43_016_24_0_PS.mrc	MotionCorr/job002/frames/TS_43_016_24_0_EVN.mrc	MotionCorr/job002/frames/TS_43_016_24_0_ODD.mrc	MotionCorr/job002/frames/TS_43_016_24_0.mrc	MotionCorr/job002/frames/TS_43_016_24_0.star	3.618342	0.000000	3.618342	CtfFind/job003/frames/TS_43_016_24_0_PS.ctf:mrc	25331.892578	25161.835938	170.056641	15.869929	0.064698	7.166976	0.649240
frames/TS_43_017_27.0.mrc	10	26.999700	85.000000	51.000000	-2.500000	MotionCorr/job002/frames/TS_43_017_27_0_PS.mrc	MotionCorr/job002/frames/TS_43_017_27_0_EVN.mrc	MotionCorr/job002/frames/TS_43_017_27_0_ODD.mrc	MotionCorr/job002/frames/TS_43_017_27_0.mrc	MotionCorr/job002/frames/TS_43_017_27_0.star	3.617766	0.000000	3.617766	CtfFind/job003/frames/TS_43_017_27_0_PS.ctf:mrc	25356.878906	24936.132812	420.746094	31.549538	0.081374	8.052782	0.950310
frames/TS_43_020_30.0.mrc	10	29.999800	85.000000	60.000000	-2.500000	MotionCorr/job002/frames/TS_43_020_30_0_PS.mrc	MotionCorr/job002/frames/TS_43_020_30_0_EVN.mrc	MotionCorr/job002/frames/TS_43_020_30_0_ODD.mrc	MotionCorr/job002/frames/TS_43_020_30_0.mrc	MotionCorr/job002/frames/TS_43_020_30_0.star	4.117562	0.000000	4.117562	CtfFind/job003/frames/TS_43_020_30_0_PS.ctf:mrc	25331.113281	25211.507812	119.605469	26.739601	0.086438	9.188430	0.669700
frames/TS_43_021_33.0.mrc	10	33.000000	85.000000	63.000000	-2.500000	MotionCorr/job002/frames/TS_43_021_33_0_PS.mrc	MotionCorr/job002/frames/TS_43_021_33_0_EVN.mrc	MotionCorr/job002/frames/TS_43_021_33_0_ODD.mrc	MotionCorr/job002/frames/TS_43_021_33_0.mrc	MotionCorr/job002/frames/TS_43_021_33_0.star	4.916295	0.000000	4.916295	CtfFind/job003/frames/TS_43_021_33_0_PS.ctf:mrc	25503.289062	25402.949219	100.339844	-82.698660	0.070019	8.740214	0.724740
frames/TS_43_024_36.0.mrc	10	35.999600	85.000000	72.000000	-2.500000	MotionCorr/job002/frames/TS_43_024_36_0_PS.mrc	MotionCorr/job002/frames/TS_43_024_36_0_EVN.mrc	MotionCorr/job002/frames/TS_43_024_36_0_ODD.mrc	MotionCorr/job002/frames/TS_43_024_36_0.mrc	MotionCorr/job002/frames/TS_43_024_36_0.star	5.823372	0.000000	5.823372	CtfFind/job003/frames/TS_43_024_36_0_PS.ctf:mrc	25518.738281	25247.296875	271.441406	-0.735980	0.112629	9.685102	0.672340
frames/TS_43_025_39.0.mrc	10	38.999200	85.000000	75.000000	-2.500000	MotionCorr/job002/frames/TS_43_025_39_0_PS.mrc	MotionCorr/job002/frames/TS_43_025_39_0_EVN.mrc	MotionCorr/job002/frames/TS_43_025_39_0_ODD.mrc	MotionCorr/job002/frames/TS_43_025_39_0.mrc	MotionCorr/job002/frames/TS_43_025_39_0.star	4.309618	0.000000	4.309618	CtfFind/job003/frames/TS_43_025_39_0_PS.ctf:mrc	25322.078125	25055.402344	266.675781	56.356750	0.097874	8.958720	0.485110
frames/TS_43_028_42.0.mrc	10	41.999400	85.000000	84.000000	-2.500000	MotionCorr/job002/frames/TS_43_028_42_0_PS.mrc	MotionCorr/job002/frames/TS_43_028_42_0_EVN.mrc	MotionCorr/job002/frames/TS_43_028_42_0_ODD.mrc	MotionCorr/job002/frames/TS_43_028_42_0.mrc	MotionCorr/job002/frames/TS_43_028_42_0.star	4.040794	0.000000	4.040794	CtfFind/job003/frames/TS_43_028_42_0_PS.ctf:mrc	25598.609375	25481.935547	116.673828	30.243906	0.082902	9.555968	0.634540
frames/TS_43_029_45.0.mrc	10	44.999000	85.000000	87.000000	-2.500000	MotionCorr/job002/frames/TS_43_029_45_0_PS.mrc	MotionCorr/job002/frames/TS_43_029_45_0_EVN.mrc	MotionCorr/job002/frames/TS_43_029_45_0_ODD.mrc	MotionCorr/job002/frames/TS_43_029_45_0.mrc	MotionCorr/job002/frames/TS_43_029_45_0.star	4.307779	0.000000	4.307779	CtfFind/job003/frames/TS_43_029_45_0_PS.ctf:mrc	25489.501953	25372.210938	117.291016	39.447842	0.105520	9.817775	0.607800
frames/TS_43_032_48.0.mrc	10	47.997100	85.000000	96.000000	-2.500000	MotionCorr/job002/frames/TS_43_032_48_0_PS.mrc	MotionCorr/job002/frames/TS_43_032_48_0_EVN.mrc	MotionCorr/job002/frames/TS_43_032_48_0_ODD.mrc	MotionCorr/job002/frames/TS_43_032_48_0.mrc	MotionCorr/job002/frames/TS_43_032_48_0.star	3.090059	0.000000	3.090059	CtfFind/job003/frames/TS_43_032_48_0_PS.ctf:mrc	25617.197266	25438.646484	178.550781	6.559878	0.157173	11.026116	0.630040
frames/TS_43_033_51.0.mrc	10	50.996300	85.000000	99.000000	-2.500000	MotionCorr/job002/frames/TS_43_033_51_0_PS.mrc	MotionCorr/job002/frames/TS_43_033_51_0_EVN.mrc	MotionCorr/job002/frames/TS_43_033_51_0_ODD.mrc	MotionCorr/job002/frames/TS_43_033_51_0.mrc	MotionCorr/job002/frames/TS_43_033_51_0.star	5.632723	0.000000	5.632723	CtfFind/job003/frames/TS_43_033_51_0_PS.ctf:mrc	25292.208984	25107.128906	185.080078	46.892399	0.100378	11.944960	0.412290
frames/TS_43_036_54.0.mrc	10	53.996900	85.000000	108.000000	-2.500000	MotionCorr/job002/frames/TS_43_036_54_0_PS.mrc	MotionCorr/job002/frames/TS_43_036_54_0_EVN.mrc	MotionCorr/job002/frames/TS_43_036_54_0_ODD.mrc	MotionCorr/job002/frames/TS_43_036_54_0.mrc	MotionCorr/job002/frames/TS_43_036_54_0.star	3.820902	0.000000	3.820902	CtfFind/job003/frames/TS_43_036_54_0_PS.ctf:mrc	25195.091797	25093.402344	101.689453	33.222790	0.150460	12.573642	0.488930
frames/TS_43_037_57.0.mrc	10	56.996000	85.000000	111.000000	-2.500000	MotionCorr/job002/frames/TS_43_037_57_0_PS.mrc	MotionCorr/job002/frames/TS_43_037_57_0_EVN.mrc	MotionCorr/job002/frames/TS_43_037_57_0_ODD.mrc	MotionCorr/job002/frames/TS_43_037_57_0.mrc	MotionCorr/job002/frames/TS_43_037_57_0.star	7.472044	0.000000	7.472044	CtfFind/job003/frames/TS_43_037_57_0_PS.ctf:mrc	25461.587891	25431.341797	30.246094	36.569164	0.158437	13.272177	0.996970
frames/TS_43_040_60.0.mrc	10	59.996200	85.000000	120.000000	-2.500000	MotionCorr/job002/frames/TS_43_040_60_0_PS.mrc	MotionCorr/job002/frames/TS_43_040_60_0_EVN.mrc	MotionCorr/job002/frames/TS_43_040_60_0_ODD.mrc	MotionCorr/job002/frames/TS_43_040_60_0.mrc	MotionCorr/job002/frames/TS_43_040_60_0.star	5.212197	0.000000	5.212197	CtfFind/job003/frames/TS_43_040_60_0_PS.ctf:mrc	25324.890625	25205.546875	119.343750	-31.532540	0.192743	15.248884	0.518320


