# Created by the starfile Python package (version 0.4.12) at 13:41:46 on 15/03/2024

data_TS_54

loop_
_rlnMicrographMovieName #1
_rlnTomoTiltMovieFrameCount #2
_rlnTomoNominalStageTiltAngle #3
_rlnTomoNominalTiltAxisAngle #4
_rlnMicrographPreExposure #5
_rlnTomoNominalDefocus #6
_rlnCtfPowerSpectrum #7
_rlnMicrographNameEven #8
_rlnMicrographNameOdd #9
_rlnMicrographName #10
_rlnMicrographMetadata #11
_rlnAccumMotionTotal #12
_rlnAccumMotionEarly #13
_rlnAccumMotionLate #14
_rlnCtfImage #15
_rlnDefocusU #16
_rlnDefocusV #17
_rlnCtfAstigmatism #18
_rlnDefocusAngle #19
_rlnCtfFigureOfMerit #20
_rlnCtfMaxResolution #21
_rlnCtfIceRingDensity #22
frames/TS_54_039_-60.0.mrc	10	-59.999100	85.000000	117.000000	-1.500000	MotionCorr/job002/frames/TS_54_039_-60_0_PS.mrc	MotionCorr/job002/frames/TS_54_039_-60_0_EVN.mrc	MotionCorr/job002/frames/TS_54_039_-60_0_ODD.mrc	MotionCorr/job002/frames/TS_54_039_-60_0.mrc	MotionCorr/job002/frames/TS_54_039_-60_0.star	15.025143	0.000000	15.025143	CtfFind/job003/frames/TS_54_039_-60_0_PS.ctf:mrc	18027.898438	17985.607422	42.291016	-69.260930	0.128431	12.573642	1.218770
frames/TS_54_038_-57.0.mrc	10	-56.999000	85.000000	114.000000	-1.500000	MotionCorr/job002/frames/TS_54_038_-57_0_PS.mrc	MotionCorr/job002/frames/TS_54_038_-57_0_EVN.mrc	MotionCorr/job002/frames/TS_54_038_-57_0_ODD.mrc	MotionCorr/job002/frames/TS_54_038_-57_0.mrc	MotionCorr/job002/frames/TS_54_038_-57_0.star	15.521387	0.000000	15.521387	CtfFind/job003/frames/TS_54_038_-57_0_PS.ctf:mrc	16821.164062	16711.328125	109.835938	71.672096	0.125754	25.000000	0.590680
frames/TS_54_035_-54.0.mrc	10	-53.999400	85.000000	105.000000	-1.500000	MotionCorr/job002/frames/TS_54_035_-54_0_PS.mrc	MotionCorr/job002/frames/TS_54_035_-54_0_EVN.mrc	MotionCorr/job002/frames/TS_54_035_-54_0_ODD.mrc	MotionCorr/job002/frames/TS_54_035_-54_0.mrc	MotionCorr/job002/frames/TS_54_035_-54_0.star	12.397099	0.000000	12.397099	CtfFind/job003/frames/TS_54_035_-54_0_PS.ctf:mrc	16255.929688	16157.592773	98.336914	-2.908060	0.141127	25.000000	0.655740
frames/TS_54_034_-51.0.mrc	10	-50.999300	85.000000	102.000000	-1.500000	MotionCorr/job002/frames/TS_54_034_-51_0_PS.mrc	MotionCorr/job002/frames/TS_54_034_-51_0_EVN.mrc	MotionCorr/job002/frames/TS_54_034_-51_0_ODD.mrc	MotionCorr/job002/frames/TS_54_034_-51_0.mrc	MotionCorr/job002/frames/TS_54_034_-51_0.star	12.299811	0.000000	12.299811	CtfFind/job003/frames/TS_54_034_-51_0_PS.ctf:mrc	15891.798828	15709.452148	182.346680	-45.634170	0.163578	11.559638	1.139510
frames/TS_54_031_-48.0.mrc	10	-47.999600	85.000000	93.000000	-1.500000	MotionCorr/job002/frames/TS_54_031_-48_0_PS.mrc	MotionCorr/job002/frames/TS_54_031_-48_0_EVN.mrc	MotionCorr/job002/frames/TS_54_031_-48_0_ODD.mrc	MotionCorr/job002/frames/TS_54_031_-48_0.mrc	MotionCorr/job002/frames/TS_54_031_-48_0.star	9.515987	0.000000	9.515987	CtfFind/job003/frames/TS_54_031_-48_0_PS.ctf:mrc	15952.823242	15865.394531	87.428711	-53.592740	0.100363	10.539670	0.870450
frames/TS_54_030_-45.0.mrc	10	-45.000000	85.000000	90.000000	-1.500000	MotionCorr/job002/frames/TS_54_030_-45_0_PS.mrc	MotionCorr/job002/frames/TS_54_030_-45_0_EVN.mrc	MotionCorr/job002/frames/TS_54_030_-45_0_ODD.mrc	MotionCorr/job002/frames/TS_54_030_-45_0.mrc	MotionCorr/job002/frames/TS_54_030_-45_0.star	10.815727	0.000000	10.815727	CtfFind/job003/frames/TS_54_030_-45_0_PS.ctf:mrc	15803.471680	15718.200195	85.271484	51.775749	0.154878	10.539670	0.768430
frames/TS_54_027_-42.0.mrc	10	-42.000400	85.000000	81.000000	-1.500000	MotionCorr/job002/frames/TS_54_027_-42_0_PS.mrc	MotionCorr/job002/frames/TS_54_027_-42_0_EVN.mrc	MotionCorr/job002/frames/TS_54_027_-42_0_ODD.mrc	MotionCorr/job002/frames/TS_54_027_-42_0.mrc	MotionCorr/job002/frames/TS_54_027_-42_0.star	8.590184	0.000000	8.590184	CtfFind/job003/frames/TS_54_027_-42_0_PS.ctf:mrc	15879.587891	15713.293945	166.293945	70.230438	0.125000	10.539670	0.725910
frames/TS_54_026_-39.0.mrc	10	-39.000200	85.000000	78.000000	-1.500000	MotionCorr/job002/frames/TS_54_026_-39_0_PS.mrc	MotionCorr/job002/frames/TS_54_026_-39_0_EVN.mrc	MotionCorr/job002/frames/TS_54_026_-39_0_ODD.mrc	MotionCorr/job002/frames/TS_54_026_-39_0.mrc	MotionCorr/job002/frames/TS_54_026_-39_0.star	8.366590	0.000000	8.366590	CtfFind/job003/frames/TS_54_026_-39_0_PS.ctf:mrc	15803.368164	15659.848633	143.519531	1.507221	0.117415	11.559638	0.662560
frames/TS_54_023_-36.0.mrc	10	-36.000100	85.000000	69.000000	-1.500000	MotionCorr/job002/frames/TS_54_023_-36_0_PS.mrc	MotionCorr/job002/frames/TS_54_023_-36_0_EVN.mrc	MotionCorr/job002/frames/TS_54_023_-36_0_ODD.mrc	MotionCorr/job002/frames/TS_54_023_-36_0.mrc	MotionCorr/job002/frames/TS_54_023_-36_0.star	7.357381	0.000000	7.357381	CtfFind/job003/frames/TS_54_023_-36_0_PS.ctf:mrc	15921.963867	15633.693359	288.270508	56.857166	0.090527	9.817775	0.500270
frames/TS_54_022_-33.0.mrc	10	-32.999500	85.000000	66.000000	-1.500000	MotionCorr/job002/frames/TS_54_022_-33_0_PS.mrc	MotionCorr/job002/frames/TS_54_022_-33_0_EVN.mrc	MotionCorr/job002/frames/TS_54_022_-33_0_ODD.mrc	MotionCorr/job002/frames/TS_54_022_-33_0.mrc	MotionCorr/job002/frames/TS_54_022_-33_0.star	8.160680	0.000000	8.160680	CtfFind/job003/frames/TS_54_022_-33_0_PS.ctf:mrc	15693.515625	15398.799805	294.715820	75.123001	0.103930	8.532114	0.868000
frames/TS_54_019_-30.0.mrc	10	-30.000300	85.000000	57.000000	-1.500000	MotionCorr/job002/frames/TS_54_019_-30_0_PS.mrc	MotionCorr/job002/frames/TS_54_019_-30_0_EVN.mrc	MotionCorr/job002/frames/TS_54_019_-30_0_ODD.mrc	MotionCorr/job002/frames/TS_54_019_-30_0.mrc	MotionCorr/job002/frames/TS_54_019_-30_0.star	6.365004	0.000000	6.365004	CtfFind/job003/frames/TS_54_019_-30_0_PS.ctf:mrc	15591.713867	15290.278320	301.435547	58.962193	0.092739	9.430231	0.658210
frames/TS_54_018_-27.0.mrc	10	-27.001700	85.000000	54.000000	-1.500000	MotionCorr/job002/frames/TS_54_018_-27_0_PS.mrc	MotionCorr/job002/frames/TS_54_018_-27_0_EVN.mrc	MotionCorr/job002/frames/TS_54_018_-27_0_ODD.mrc	MotionCorr/job002/frames/TS_54_018_-27_0.mrc	MotionCorr/job002/frames/TS_54_018_-27_0.star	7.058289	0.000000	7.058289	CtfFind/job003/frames/TS_54_018_-27_0_PS.ctf:mrc	15516.291992	15190.783203	325.508789	68.932968	0.086891	9.072121	0.527930
frames/TS_54_015_-24.0.mrc	10	-24.000100	85.000000	45.000000	-1.500000	MotionCorr/job002/frames/TS_54_015_-24_0_PS.mrc	MotionCorr/job002/frames/TS_54_015_-24_0_EVN.mrc	MotionCorr/job002/frames/TS_54_015_-24_0_ODD.mrc	MotionCorr/job002/frames/TS_54_015_-24_0.mrc	MotionCorr/job002/frames/TS_54_015_-24_0.star	6.120384	0.000000	6.120384	CtfFind/job003/frames/TS_54_015_-24_0_PS.ctf:mrc	15697.017578	14925.690430	771.327148	-71.515050	0.071205	7.388635	0.564480
frames/TS_54_014_-21.0.mrc	10	-21.000400	85.000000	42.000000	-1.500000	MotionCorr/job002/frames/TS_54_014_-21_0_PS.mrc	MotionCorr/job002/frames/TS_54_014_-21_0_EVN.mrc	MotionCorr/job002/frames/TS_54_014_-21_0_ODD.mrc	MotionCorr/job002/frames/TS_54_014_-21_0.mrc	MotionCorr/job002/frames/TS_54_014_-21_0.star	5.664473	0.000000	5.664473	CtfFind/job003/frames/TS_54_014_-21_0_PS.ctf:mrc	15675.539062	15475.607422	199.931641	24.122786	0.075342	7.963306	0.662400
frames/TS_54_011_-18.0.mrc	10	-18.001800	85.000000	33.000000	-1.500000	MotionCorr/job002/frames/TS_54_011_-18_0_PS.mrc	MotionCorr/job002/frames/TS_54_011_-18_0_EVN.mrc	MotionCorr/job002/frames/TS_54_011_-18_0_ODD.mrc	MotionCorr/job002/frames/TS_54_011_-18_0.mrc	MotionCorr/job002/frames/TS_54_011_-18_0.star	5.176144	0.000000	5.176144	CtfFind/job003/frames/TS_54_011_-18_0_PS.ctf:mrc	15416.660156	15416.660156	0.000000	56.683125	0.088412	6.958229	0.985870
frames/TS_54_010_-15.0.mrc	10	-15.003200	85.000000	30.000000	-1.500000	MotionCorr/job002/frames/TS_54_010_-15_0_PS.mrc	MotionCorr/job002/frames/TS_54_010_-15_0_EVN.mrc	MotionCorr/job002/frames/TS_54_010_-15_0_ODD.mrc	MotionCorr/job002/frames/TS_54_010_-15_0.mrc	MotionCorr/job002/frames/TS_54_010_-15_0.star	5.213246	0.000000	5.213246	CtfFind/job003/frames/TS_54_010_-15_0_PS.ctf:mrc	15473.639648	15408.146484	65.493164	63.956406	0.081766	6.636089	0.901650
frames/TS_54_007_-12.0.mrc	10	-11.998500	85.000000	21.000000	-1.500000	MotionCorr/job002/frames/TS_54_007_-12_0_PS.mrc	MotionCorr/job002/frames/TS_54_007_-12_0_EVN.mrc	MotionCorr/job002/frames/TS_54_007_-12_0_ODD.mrc	MotionCorr/job002/frames/TS_54_007_-12_0.mrc	MotionCorr/job002/frames/TS_54_007_-12_0.star	4.194469	0.000000	4.194469	CtfFind/job003/frames/TS_54_007_-12_0_PS.ctf:mrc	15421.909180	15421.907227	0.001953	-75.816870	0.097848	5.874570	0.694140
frames/TS_54_006_-9.0.mrc	10	-8.999400	85.000000	18.000000	-1.500000	MotionCorr/job002/frames/TS_54_006_-9_0_PS.mrc	MotionCorr/job002/frames/TS_54_006_-9_0_EVN.mrc	MotionCorr/job002/frames/TS_54_006_-9_0_ODD.mrc	MotionCorr/job002/frames/TS_54_006_-9_0.mrc	MotionCorr/job002/frames/TS_54_006_-9_0.star	4.226744	0.000000	4.226744	CtfFind/job003/frames/TS_54_006_-9_0_PS.ctf:mrc	15347.208008	15220.541016	126.666992	24.603638	0.087386	5.429527	0.606490
frames/TS_54_003_-6.0.mrc	10	-5.998760	85.000000	9.000000	-1.500000	MotionCorr/job002/frames/TS_54_003_-6_0_PS.mrc	MotionCorr/job002/frames/TS_54_003_-6_0_EVN.mrc	MotionCorr/job002/frames/TS_54_003_-6_0_ODD.mrc	MotionCorr/job002/frames/TS_54_003_-6_0.mrc	MotionCorr/job002/frames/TS_54_003_-6_0.star	4.304615	0.000000	4.304615	CtfFind/job003/frames/TS_54_003_-6_0_PS.ctf:mrc	15385.672852	15175.204102	210.468750	34.513454	0.094744	5.119268	1.053120
frames/TS_54_002_-3.0.mrc	10	-2.999630	85.000000	6.000000	-1.500000	MotionCorr/job002/frames/TS_54_002_-3_0_PS.mrc	MotionCorr/job002/frames/TS_54_002_-3_0_EVN.mrc	MotionCorr/job002/frames/TS_54_002_-3_0_ODD.mrc	MotionCorr/job002/frames/TS_54_002_-3_0.mrc	MotionCorr/job002/frames/TS_54_002_-3_0.star	3.218856	0.000000	3.218856	CtfFind/job003/frames/TS_54_002_-3_0_PS.ctf:mrc	15397.405273	15185.711914	211.693359	41.919296	0.098356	5.082961	0.615130
frames/TS_54_000_-0.0.mrc	10	-0.000500	85.000000	0.000000	-1.500000	MotionCorr/job002/frames/TS_54_000_-0_0_PS.mrc	MotionCorr/job002/frames/TS_54_000_-0_0_EVN.mrc	MotionCorr/job002/frames/TS_54_000_-0_0_ODD.mrc	MotionCorr/job002/frames/TS_54_000_-0_0.mrc	MotionCorr/job002/frames/TS_54_000_-0_0.star	3.898448	2.142234	1.756215	CtfFind/job003/frames/TS_54_000_-0_0_PS.ctf:mrc	15496.095703	15230.937500	265.158203	24.135435	0.093887	5.119268	0.826400
frames/TS_54_001_3.0.mrc	10	2.999630	85.000000	3.000000	-1.500000	MotionCorr/job002/frames/TS_54_001_3_0_PS.mrc	MotionCorr/job002/frames/TS_54_001_3_0_EVN.mrc	MotionCorr/job002/frames/TS_54_001_3_0_ODD.mrc	MotionCorr/job002/frames/TS_54_001_3_0.mrc	MotionCorr/job002/frames/TS_54_001_3_0.star	2.820754	0.000000	2.820754	CtfFind/job003/frames/TS_54_001_3_0_PS.ctf:mrc	15483.705078	15210.575195	273.129883	21.621447	0.093105	5.231369	0.492000
frames/TS_54_004_6.0.mrc	10	5.999760	85.000000	12.000000	-1.500000	MotionCorr/job002/frames/TS_54_004_6_0_PS.mrc	MotionCorr/job002/frames/TS_54_004_6_0_EVN.mrc	MotionCorr/job002/frames/TS_54_004_6_0_ODD.mrc	MotionCorr/job002/frames/TS_54_004_6_0.mrc	MotionCorr/job002/frames/TS_54_004_6_0.star	3.085074	0.000000	3.085074	CtfFind/job003/frames/TS_54_004_6_0_PS.ctf:mrc	15384.260742	14974.330078	409.930664	43.547001	0.087902	5.156098	1.092580
frames/TS_54_005_9.0.mrc	10	8.999400	85.000000	15.000000	-1.500000	MotionCorr/job002/frames/TS_54_005_9_0_PS.mrc	MotionCorr/job002/frames/TS_54_005_9_0_EVN.mrc	MotionCorr/job002/frames/TS_54_005_9_0_ODD.mrc	MotionCorr/job002/frames/TS_54_005_9_0.mrc	MotionCorr/job002/frames/TS_54_005_9_0.star	2.978818	0.000000	2.978818	CtfFind/job003/frames/TS_54_005_9_0_PS.ctf:mrc	15505.573242	15043.636719	461.936523	43.767529	0.103138	5.269835	0.700960
frames/TS_54_008_12.0.mrc	10	12.000500	85.000000	24.000000	-1.500000	MotionCorr/job002/frames/TS_54_008_12_0_PS.mrc	MotionCorr/job002/frames/TS_54_008_12_0_EVN.mrc	MotionCorr/job002/frames/TS_54_008_12_0_ODD.mrc	MotionCorr/job002/frames/TS_54_008_12_0.mrc	MotionCorr/job002/frames/TS_54_008_12_0.star	3.162589	0.000000	3.162589	CtfFind/job003/frames/TS_54_008_12_0_PS.ctf:mrc	15304.034180	15204.896484	99.137695	38.386467	0.076736	6.178427	0.835920
frames/TS_54_009_15.0.mrc	10	15.000200	85.000000	27.000000	-1.500000	MotionCorr/job002/frames/TS_54_009_15_0_PS.mrc	MotionCorr/job002/frames/TS_54_009_15_0_EVN.mrc	MotionCorr/job002/frames/TS_54_009_15_0_ODD.mrc	MotionCorr/job002/frames/TS_54_009_15_0.mrc	MotionCorr/job002/frames/TS_54_009_15_0.star	3.562077	0.000000	3.562077	CtfFind/job003/frames/TS_54_009_15_0_PS.ctf:mrc	15328.391602	15090.342773	238.048828	60.690006	0.093326	6.232153	1.033810
frames/TS_54_012_18.0.mrc	10	18.000800	85.000000	36.000000	-1.500000	MotionCorr/job002/frames/TS_54_012_18_0_PS.mrc	MotionCorr/job002/frames/TS_54_012_18_0_EVN.mrc	MotionCorr/job002/frames/TS_54_012_18_0_ODD.mrc	MotionCorr/job002/frames/TS_54_012_18_0.mrc	MotionCorr/job002/frames/TS_54_012_18_0.star	4.641988	0.000000	4.641988	CtfFind/job003/frames/TS_54_012_18_0_PS.ctf:mrc	15308.740234	14938.937500	369.802734	26.613243	0.075756	6.761298	0.585740
frames/TS_54_013_21.0.mrc	10	21.000400	85.000000	39.000000	-1.500000	MotionCorr/job002/frames/TS_54_013_21_0_PS.mrc	MotionCorr/job002/frames/TS_54_013_21_0_EVN.mrc	MotionCorr/job002/frames/TS_54_013_21_0_ODD.mrc	MotionCorr/job002/frames/TS_54_013_21_0.mrc	MotionCorr/job002/frames/TS_54_013_21_0.star	3.758693	0.000000	3.758693	CtfFind/job003/frames/TS_54_013_21_0_PS.ctf:mrc	15416.769531	15077.372070	339.397461	44.589581	0.069856	6.515432	0.798500
frames/TS_54_016_24.0.mrc	10	24.000100	85.000000	48.000000	-1.500000	MotionCorr/job002/frames/TS_54_016_24_0_PS.mrc	MotionCorr/job002/frames/TS_54_016_24_0_EVN.mrc	MotionCorr/job002/frames/TS_54_016_24_0_ODD.mrc	MotionCorr/job002/frames/TS_54_016_24_0.mrc	MotionCorr/job002/frames/TS_54_016_24_0.star	5.241663	0.000000	5.241663	CtfFind/job003/frames/TS_54_016_24_0_PS.ctf:mrc	15350.473633	14956.526367	393.947266	-89.716530	0.088287	7.388635	0.645080
frames/TS_54_017_27.0.mrc	10	26.999700	85.000000	51.000000	-1.500000	MotionCorr/job002/frames/TS_54_017_27_0_PS.mrc	MotionCorr/job002/frames/TS_54_017_27_0_EVN.mrc	MotionCorr/job002/frames/TS_54_017_27_0_ODD.mrc	MotionCorr/job002/frames/TS_54_017_27_0.mrc	MotionCorr/job002/frames/TS_54_017_27_0.star	4.953899	0.000000	4.953899	CtfFind/job003/frames/TS_54_017_27_0_PS.ctf:mrc	14937.171875	14848.908203	88.263672	59.265892	0.084095	7.963306	0.643290
frames/TS_54_020_30.0.mrc	10	29.999300	85.000000	60.000000	-1.500000	MotionCorr/job002/frames/TS_54_020_30_0_PS.mrc	MotionCorr/job002/frames/TS_54_020_30_0_EVN.mrc	MotionCorr/job002/frames/TS_54_020_30_0_ODD.mrc	MotionCorr/job002/frames/TS_54_020_30_0.mrc	MotionCorr/job002/frames/TS_54_020_30_0.star	5.211208	0.000000	5.211208	CtfFind/job003/frames/TS_54_020_30_0_PS.ctf:mrc	15439.809570	14995.515625	444.293945	29.674667	0.091226	7.963306	0.674620
frames/TS_54_021_33.0.mrc	10	32.999500	85.000000	63.000000	-1.500000	MotionCorr/job002/frames/TS_54_021_33_0_PS.mrc	MotionCorr/job002/frames/TS_54_021_33_0_EVN.mrc	MotionCorr/job002/frames/TS_54_021_33_0_ODD.mrc	MotionCorr/job002/frames/TS_54_021_33_0.mrc	MotionCorr/job002/frames/TS_54_021_33_0.star	5.540879	0.000000	5.540879	CtfFind/job003/frames/TS_54_021_33_0_PS.ctf:mrc	15492.783203	15374.936523	117.846680	2.925749	0.070125	9.307761	1.282160
frames/TS_54_024_36.0.mrc	10	36.000100	85.000000	72.000000	-1.500000	MotionCorr/job002/frames/TS_54_024_36_0_PS.mrc	MotionCorr/job002/frames/TS_54_024_36_0_EVN.mrc	MotionCorr/job002/frames/TS_54_024_36_0_ODD.mrc	MotionCorr/job002/frames/TS_54_024_36_0.mrc	MotionCorr/job002/frames/TS_54_024_36_0.star	6.820884	0.000000	6.820884	CtfFind/job003/frames/TS_54_024_36_0_PS.ctf:mrc	15144.127930	15026.886719	117.241211	22.614073	0.119576	9.555968	0.611340
frames/TS_54_025_39.0.mrc	10	38.999200	85.000000	75.000000	-1.500000	MotionCorr/job002/frames/TS_54_025_39_0_PS.mrc	MotionCorr/job002/frames/TS_54_025_39_0_EVN.mrc	MotionCorr/job002/frames/TS_54_025_39_0_ODD.mrc	MotionCorr/job002/frames/TS_54_025_39_0.mrc	MotionCorr/job002/frames/TS_54_025_39_0.star	7.490082	0.000000	7.490082	CtfFind/job003/frames/TS_54_025_39_0_PS.ctf:mrc	15300.750000	15300.750000	0.000000	41.683113	0.117302	10.094332	0.737300
frames/TS_54_028_42.0.mrc	10	41.996900	85.000000	84.000000	-1.500000	MotionCorr/job002/frames/TS_54_028_42_0_PS.mrc	MotionCorr/job002/frames/TS_54_028_42_0_EVN.mrc	MotionCorr/job002/frames/TS_54_028_42_0_ODD.mrc	MotionCorr/job002/frames/TS_54_028_42_0.mrc	MotionCorr/job002/frames/TS_54_028_42_0.star	8.404922	0.000000	8.404922	CtfFind/job003/frames/TS_54_028_42_0_PS.ctf:mrc	15915.346680	15574.281250	341.065430	29.769024	0.121007	10.696979	0.713250
frames/TS_54_029_45.0.mrc	10	44.997500	85.000000	87.000000	-1.500000	MotionCorr/job002/frames/TS_54_029_45_0_PS.mrc	MotionCorr/job002/frames/TS_54_029_45_0_EVN.mrc	MotionCorr/job002/frames/TS_54_029_45_0_ODD.mrc	MotionCorr/job002/frames/TS_54_029_45_0.mrc	MotionCorr/job002/frames/TS_54_029_45_0.star	8.971955	0.000000	8.971955	CtfFind/job003/frames/TS_54_029_45_0_PS.ctf:mrc	15060.244141	14960.466797	99.777344	-74.977490	0.145571	11.376152	0.548480
frames/TS_54_032_48.0.mrc	10	47.998100	85.000000	96.000000	-1.500000	MotionCorr/job002/frames/TS_54_032_48_0_PS.mrc	MotionCorr/job002/frames/TS_54_032_48_0_EVN.mrc	MotionCorr/job002/frames/TS_54_032_48_0_ODD.mrc	MotionCorr/job002/frames/TS_54_032_48_0.mrc	MotionCorr/job002/frames/TS_54_032_48_0.star	7.462951	0.000000	7.462951	CtfFind/job003/frames/TS_54_032_48_0_PS.ctf:mrc	14980.744141	14881.144531	99.599609	24.921618	0.110570	11.198400	0.608910
frames/TS_54_033_51.0.mrc	10	50.996300	85.000000	99.000000	-1.500000	MotionCorr/job002/frames/TS_54_033_51_0_PS.mrc	MotionCorr/job002/frames/TS_54_033_51_0_EVN.mrc	MotionCorr/job002/frames/TS_54_033_51_0_ODD.mrc	MotionCorr/job002/frames/TS_54_033_51_0.mrc	MotionCorr/job002/frames/TS_54_033_51_0.star	9.473860	0.000000	9.473860	CtfFind/job003/frames/TS_54_033_51_0_PS.ctf:mrc	15448.224609	15356.937500	91.287109	-61.246290	0.127937	11.198400	0.528160
frames/TS_54_036_54.0.mrc	10	53.997400	85.000000	108.000000	-1.500000	MotionCorr/job002/frames/TS_54_036_54_0_PS.mrc	MotionCorr/job002/frames/TS_54_036_54_0_EVN.mrc	MotionCorr/job002/frames/TS_54_036_54_0_ODD.mrc	MotionCorr/job002/frames/TS_54_036_54_0.mrc	MotionCorr/job002/frames/TS_54_036_54_0.star	10.354688	0.000000	10.354688	CtfFind/job003/frames/TS_54_036_54_0_PS.ctf:mrc	15208.645508	15106.578125	102.067383	26.970148	0.132164	25.000000	1.123490
frames/TS_54_037_57.0.mrc	10	56.996500	85.000000	111.000000	-1.500000	MotionCorr/job002/frames/TS_54_037_57_0_PS.mrc	MotionCorr/job002/frames/TS_54_037_57_0_EVN.mrc	MotionCorr/job002/frames/TS_54_037_57_0_ODD.mrc	MotionCorr/job002/frames/TS_54_037_57_0.mrc	MotionCorr/job002/frames/TS_54_037_57_0.star	11.211188	0.000000	11.211188	CtfFind/job003/frames/TS_54_037_57_0_PS.ctf:mrc	15059.540039	15015.178711	44.361328	-32.075290	0.127873	10.539670	0.606530
frames/TS_54_040_60.0.mrc	10	59.997200	85.000000	120.000000	-1.500000	MotionCorr/job002/frames/TS_54_040_60_0_PS.mrc	MotionCorr/job002/frames/TS_54_040_60_0_EVN.mrc	MotionCorr/job002/frames/TS_54_040_60_0_ODD.mrc	MotionCorr/job002/frames/TS_54_040_60_0.mrc	MotionCorr/job002/frames/TS_54_040_60_0.star	9.814438	0.000000	9.814438	CtfFind/job003/frames/TS_54_040_60_0_PS.ctf:mrc	15841.208008	15757.214844	83.993164	-79.131660	0.177517	25.000000	0.672730


