# RELION postprocess; version 5.0-beta-2-commit-a0b145
# --mask mask_fsc.mrc --i Reconstruct/job021/half1.mrc --o PostProcess/job022/postprocess --angpix -1 --pipeline_control PostProcess/job022/ 

# version 50001

data_general

_rlnFinalResolution                               5.082353
_rlnBfactorUsedForSharpening                      0.000000
_rlnUnfilteredMapHalf1                        Reconstruct/job021/half1.mrc
_rlnUnfilteredMapHalf2                        Reconstruct/job021/half2.mrc
_rlnPostprocessedMap                          PostProcess/job022/postprocess.mrc
_rlnParticleBoxFractionSolventMask               10.682012
_rlnMaskName                                  mask_fsc.mrc
_rlnRandomiseFrom                                 8.640000
_rlnPostprocessedMapMasked                    PostProcess/job022/postprocess_masked.mrc
 

# version 50001

data_fsc

loop_ 
_rlnSpectralIndex #1 
_rlnResolution #2 
_rlnAngstromResolution #3 
_rlnFourierShellCorrelationCorrected #4 
_rlnFourierShellCorrelationParticleMaskFraction #5 
_rlnFourierShellCorrelationUnmaskedMaps #6 
_rlnFourierShellCorrelationMaskedMaps #7 
_rlnCorrectedFourierShellCorrelationPhaseRandomizedMaskedMaps #8 
           0     0.001001   999.000000     1.000000     1.000000     1.000000     1.000000     1.000000 
           1     0.003858   259.200012     0.999200     0.999968     0.999653     0.999200     0.999184 
           2     0.007716   129.600006     0.997951     0.999928     0.999235     0.997951     0.997930 
           3     0.011574    86.400004     0.999357     0.999994     0.999939     0.999357     0.999395 
           4     0.015432    64.800003     0.999841     0.999993     0.999929     0.999841     0.999835 
           5     0.019290    51.840002     0.999806     0.999977     0.999749     0.999806     0.999803 
           6     0.023148    43.200002     0.999749     0.999956     0.999526     0.999749     0.999757 
           7     0.027006    37.028573     0.999661     0.999940     0.999363     0.999661     0.999677 
           8     0.030864    32.400002     0.999293     0.999907     0.999006     0.999293     0.999286 
           9     0.034722    28.800001     0.998887     0.999819     0.998069     0.998887     0.998892 
          10     0.038580    25.920001     0.998255     0.999773     0.997586     0.998255     0.998226 
          11     0.042438    23.563637     0.997805     0.999682     0.996612     0.997805     0.997769 
          12     0.046296    21.600001     0.997353     0.999238     0.991916     0.997353     0.997183 
          13     0.050154    19.938462     0.995697     0.998686     0.986143     0.995697     0.995412 
          14     0.054012    18.514287     0.993850     0.999027     0.989701     0.993850     0.993883 
          15     0.057870    17.280001     0.991811     0.998403     0.983200     0.991811     0.992072 
          16     0.061728    16.200001     0.988240     0.997117     0.970042     0.988240     0.988634 
          17     0.065586    15.247060     0.991157     0.997688     0.975845     0.991157     0.991141 
          18     0.069444    14.400001     0.992574     0.998512     0.984333     0.992574     0.992975 
          19     0.073302    13.642106     0.989713     0.998300     0.982138     0.989713     0.990493 
          20     0.077160    12.960001     0.987525     0.997297     0.971865     0.987525     0.987854 
          21     0.081019    12.342858     0.988641     0.997081     0.969677     0.988641     0.989200 
          22     0.084877    11.781819     0.987398     0.996608     0.964918     0.987398     0.988146 
          23     0.088735    11.269566     0.986248     0.995490     0.953836     0.986248     0.986205 
          24     0.092593    10.800001     0.985098     0.996806     0.966909     0.985098     0.984633 
          25     0.096451    10.368000     0.980558     0.995434     0.953289     0.980558     0.980803 
          26     0.100309     9.969231     0.972597     0.988146     0.886410     0.972597     0.973281 
          27     0.104167     9.600000     0.963209     0.990535     0.907387     0.963209     0.963041 
          28     0.108025     9.257143     0.959297     0.987641     0.882088     0.959297     0.955846 
          29     0.111883     8.937931     0.952821     0.978554     0.810301     0.952821     0.938752 
          30     0.115741     8.640000     0.921845     0.963587     0.712419     0.921845     0.860333 
          31     0.119599     8.361291     0.888783     0.960874     0.696883     0.888783     0.628986 
          32     0.123457     8.100000     0.726435     0.964199     0.716010     0.862758     0.498323 
          33     0.127315     7.854546     0.695588     0.917325     0.509495     0.831010     0.444864 
          34     0.131173     7.623530     0.720538     0.914437     0.500124     0.812975     0.330767 
          35     0.135031     7.405715     0.687975     0.908857     0.482807     0.781175     0.298693 
          36     0.138889     7.200000     0.579319     0.875670     0.397352     0.675026     0.227505 
          37     0.142747     7.005406     0.453209     0.721889     0.195492     0.584763     0.240592 
          38     0.146605     6.821053     0.423533     0.738282     0.208911     0.534710     0.192859 
          39     0.150463     6.646154     0.423541     0.793686     0.264779     0.504217     0.139950 
          40     0.154321     6.480000     0.394664     0.718746     0.193050     0.482007     0.144287 
          41     0.158179     6.321952     0.336526     0.627121     0.136029     0.410546     0.111564 
          42     0.162037     6.171429     0.253334     0.543506     0.100282     0.332107     0.105500 
          43     0.165895     6.027907     0.224811     0.454317     0.072305     0.304020     0.102180 
          44     0.169753     5.890909     0.211049     0.561181     0.106919     0.278645     0.085679 
          45     0.173611     5.760000     0.221094     0.503290     0.086637     0.279678     0.075213 
          46     0.177469     5.634783     0.240645     0.461818     0.074359     0.271661     0.040845 
          47     0.181327     5.514894     0.203969     0.327462     0.043595     0.227558     0.029634 
          48     0.185185     5.400000     0.214723     0.414737     0.062212     0.233317     0.023679 
          49     0.189043     5.289796     0.228221     0.448331     0.070700     0.257786     0.038307 
          50     0.192901     5.184000     0.210003     0.401241     0.059030     0.256121     0.058378 
          51     0.196759     5.082353     0.148062     0.430609     0.066117     0.196832     0.057246 
          52     0.200617     4.984616     0.076464     0.312356     0.040789     0.130672     0.058696 
          53     0.204475     4.890566     0.064097     0.232591     0.027591     0.120210     0.059955 
          54     0.208333     4.800000     0.108493     0.277174     0.034654     0.134200     0.028836 
          55     0.212191     4.712727     0.066067     0.210784     0.024393     0.073643     0.008112 
          56     0.216049     4.628572     0.047668     0.167792     0.018525     0.034239     -0.01410 
          57     0.219907     4.547369     0.045280     0.161363     0.017694     0.027813     -0.01830 
          58     0.223765     4.468966     0.018404     -0.00146 -1.36669e-04     0.023641     0.005335 
          59     0.227623     4.393221     0.024499     0.097492     0.010011     0.034533     0.010285 
          60     0.231481     4.320000     0.062755     0.196571     0.022392     0.061811     -0.00101 
          61     0.235339     4.249181     0.069768     0.277920     0.034778     0.061519     -0.00887 
          62     0.239198     4.180645     0.028783     0.068527     0.006840     0.019880     -0.00917 
          63     0.243056     4.114286     -0.01348     0.095930     0.009836     -0.02197     -0.00838 
          64     0.246914     4.050000     0.007259     0.087974     0.008949     0.004678     -0.00260 
          65     0.250772     3.987692     0.035920     -0.04136     -0.00373     0.047006     0.011500 
          66     0.254630     3.927273     0.020448     -0.12257     -0.01033     0.028716     0.008440 
          67     0.258488     3.868657 -4.14895e-04     0.161204     0.017673     0.011263     0.011673 
          68     0.262346     3.811765 8.343018e-04     0.194841     0.022152     0.014713     0.013890 
          69     0.266204     3.756522     -0.00167     0.027474     0.002638     0.012004     0.013653 
          70     0.270062     3.702857     0.043595     0.137438     0.014697     0.047779     0.004375 
          71     0.273920     3.650704     0.072112     0.037227     0.003607     0.079330     0.007780 
          72     0.277778     3.600000     0.046415     -0.09390     -0.00810     0.051835     0.005684 
          73     0.281636     3.550685     -0.01360     0.149172     0.016148     -0.00791     0.005619 
          74     0.285494     3.502703     -0.04326     -0.36714     -0.02579     -0.03198     0.010812 
          75     0.289352     3.456000     -0.01209     -0.13983     -0.01162     -0.00285     0.009135 
          76     0.293210     3.410526     0.029085     -0.10862     -0.00926     0.024885     -0.00433 
          77     0.297068     3.366234     0.013380     -0.05862     -0.00521     0.007822     -0.00563 
          78     0.300926     3.323077     -0.00919     0.120023     0.012608     -0.00846 7.230143e-04 
          79     0.304784     3.281013     -0.00147     -0.06901     -0.00608 -5.50587e-04 9.201857e-04 
          80     0.308642     3.240000     0.018254     -0.03634     -0.00329     0.010709     -0.00769 
          81     0.312500     3.200000     0.020506     0.123937     0.013071     0.020041 -4.75137e-04 
          82     0.316358     3.160976     -0.00151     -0.05498     -0.00490     -0.00547     -0.00395 
          83     0.320216     3.122892     -0.00549     -0.06488     -0.00574     -0.01570     -0.01016 
          84     0.324074     3.085714     0.017214     0.051623     0.005070     0.007815     -0.00956 
          85     0.327932     3.049412     0.006702     -0.09836     -0.00845     0.002669     -0.00406 
          86     0.331790     3.013954     -0.02715     -0.06603     -0.00583     -0.01243     0.014328 
          87     0.335648     2.979310     -0.03029     -0.09340     -0.00806     -0.01433     0.015484 
          88     0.339506     2.945455     -0.00839     0.012424     0.001176     0.005073     0.013354 
          89     0.343364     2.912360     -0.00798     0.035034     0.003387     0.008237     0.016089 
          90     0.347222     2.880000     -0.02081     -0.07163     -0.00630     -0.00946     0.011121 
          91     0.351080     2.848352     -0.02701     -0.10828     -0.00923     -0.02213     0.004757 
          92     0.354938     2.817391     -0.02322     0.092378     0.009438     -0.02321 1.561523e-05 
          93     0.358796     2.787097     -0.01361     -0.00293 -2.73787e-04     -0.02557     -0.01180 
          94     0.362654     2.757447     -0.02896     -0.03484     -0.00316     -0.03733     -0.00813 
          95     0.366512     2.728421     -0.04289     0.042134     0.004101     -0.04402     -0.00109 
          96     0.370370     2.700000     -0.03251     0.115547     0.012082     -0.03556     -0.00295 
 

# version 50001

data_guinier

loop_ 
_rlnResolutionSquared #1 
_rlnLogAmplitudesOriginal #2 
_rlnLogAmplitudesWeighted #3 
    0.000000    -27.76628    -27.76628 
1.488435e-05     -4.73558     -4.73578 
5.953741e-05     -5.84180     -5.84231 
1.339592e-04     -5.98002     -5.98018 
2.381496e-04     -5.95361     -5.95365 
3.721088e-04     -6.38665     -6.38670 
5.358367e-04     -6.81958     -6.81964 
7.293333e-04     -7.11523     -7.11531 
9.525986e-04     -7.21283     -7.21301 
    0.001206     -7.44032     -7.44060 
    0.001488     -7.46061     -7.46105 
    0.001801     -7.70021     -7.70076 
    0.002143     -8.03649     -8.03716 
    0.002515     -8.16828     -8.16936 
    0.002917     -7.93326     -7.93480 
    0.003349     -8.02446     -8.02652 
    0.003810     -8.19662     -8.19959 
    0.004302     -8.23045     -8.23268 
    0.004823     -8.04762     -8.04948 
    0.005373     -8.04158     -8.04418 
    0.005954     -8.09130     -8.09445 
    0.006564     -8.07981     -8.08267 
    0.007204     -8.18694     -8.19012 
    0.007874     -8.28384     -8.28731 
    0.008573     -8.11541     -8.11918 
    0.009303     -8.21580     -8.22073 
    0.010062     -8.60937     -8.61636 
    0.010851     -8.51503     -8.52449 
    0.011669     -8.55727     -8.56777 
    0.012518     -8.79675     -8.80898 
    0.013396     -8.91518     -8.93593 
    0.014304     -8.99560     -9.02595 
    0.015242     -8.99379     -9.08005 
    0.016209     -9.17427     -9.27321 
    0.017206     -9.14373     -9.23235 
    0.018233     -9.18107     -9.28326 
    0.019290     -9.26400     -9.41888 
    0.020377     -9.39843     -9.63444 
    0.021493     -9.40207     -9.66163 
    0.022639     -9.35139     -9.61094 
    0.023815     -9.36274     -9.64736 
    0.025021     -9.38497     -9.72798 
    0.026256     -9.39781     -9.85066 
    0.027521     -9.39128     -9.89235 
    0.028816     -9.33676     -9.86376 
    0.030141     -9.34357     -9.85145 
    0.031495     -9.33489     -9.80835 
    0.032880     -9.34406     -9.88520 
    0.034294     -9.31413     -9.83402 
    0.035737     -9.27564     -9.77057 
    0.037211     -9.29690     -9.82595 
    0.038714     -9.26490     -9.94242 
    0.040247     -9.25557    -10.23131 
    0.041810     -9.26028    -10.31845 
    0.043403     -9.24450    -10.05996 
    0.045025     -9.22979    -10.27375 
    0.046677     -9.21135    -10.40980 
    0.048359     -9.20919    -10.43220 
    0.050071     -9.19804    -10.85819 
    0.051812     -9.17633    -10.69641 
    0.053584     -9.14365    -10.21177 
    0.055385     -9.13753    -10.15597 
    0.057215     -9.13044    -10.57205 
    0.059076     -9.11603    -99.00000 
    0.060966     -9.09324    -99.00000 
    0.062886     -9.07576    -99.00000 
    0.064836     -9.08128    -99.00000 
    0.066816     -9.05692    -99.00000 
    0.068825     -9.04200    -99.00000 
    0.070864     -9.04896    -99.00000 
    0.072933     -9.02395    -99.00000 
    0.075032     -9.02538    -99.00000 
    0.077160     -9.02090    -99.00000 
    0.079319     -8.99187    -99.00000 
    0.081507     -9.02358    -99.00000 
    0.083724     -9.00855    -99.00000 
    0.085972     -9.00486    -99.00000 
    0.088249     -8.99274    -99.00000 
    0.090556     -8.97745    -99.00000 
    0.092893     -8.98303    -99.00000 
    0.095260     -8.97308    -99.00000 
    0.097656     -8.95091    -99.00000 
    0.100082     -8.95818    -99.00000 
    0.102538     -8.95949    -99.00000 
    0.105024     -8.94489    -99.00000 
    0.107539     -8.95206    -99.00000 
    0.110085     -8.93840    -99.00000 
    0.112660     -8.93860    -99.00000 
    0.115264     -8.93120    -99.00000 
    0.117899     -8.92778    -99.00000 
    0.120563     -8.92378    -99.00000 
    0.123257     -8.92034    -99.00000 
    0.125981     -8.90429    -99.00000 
    0.128735     -8.90267    -99.00000 
    0.131518     -8.89534    -99.00000 
    0.134331     -8.90057    -99.00000 
    0.137174     -9.17427    -99.00000 
 
