# RELION postprocess; version 5.0-beta-2-commit-a0b145
# --mask mask_fsc.mrc --i Reconstruct/job055/half1.mrc --o PostProcess/job056/postprocess --angpix -1 --pipeline_control PostProcess/job056/ 

# version 50001

data_general

_rlnFinalResolution                               3.410526
_rlnBfactorUsedForSharpening                      0.000000
_rlnUnfilteredMapHalf1                        Reconstruct/job055/half1.mrc
_rlnUnfilteredMapHalf2                        Reconstruct/job055/half2.mrc
_rlnPostprocessedMap                          PostProcess/job056/postprocess.mrc
_rlnParticleBoxFractionSolventMask               10.682012
_rlnMaskName                                  mask_fsc.mrc
_rlnRandomiseFrom                                 7.005406
_rlnPostprocessedMapMasked                    PostProcess/job056/postprocess_masked.mrc
 

# version 50001

data_fsc

loop_ 
_rlnSpectralIndex #1 
_rlnResolution #2 
_rlnAngstromResolution #3 
_rlnFourierShellCorrelationCorrected #4 
_rlnFourierShellCorrelationParticleMaskFraction #5 
_rlnFourierShellCorrelationUnmaskedMaps #6 
_rlnFourierShellCorrelationMaskedMaps #7 
_rlnCorrectedFourierShellCorrelationPhaseRandomizedMaskedMaps #8 
           0     0.001001   999.000000     1.000000     1.000000     1.000000     1.000000     1.000000 
           1     0.003858   259.200012     0.999081     0.999958     0.999556     0.999081     0.998908 
           2     0.007716   129.600006     0.998188     0.999862     0.998525     0.998188     0.998028 
           3     0.011574    86.400004     0.999485     0.999989     0.999884     0.999485     0.999558 
           4     0.015432    64.800003     0.999845     0.999981     0.999792     0.999845     0.999848 
           5     0.019290    51.840002     0.999887     0.999969     0.999672     0.999887     0.999892 
           6     0.023148    43.200002     0.999818     0.999940     0.999354     0.999818     0.999823 
           7     0.027006    37.028573     0.999577     0.999873     0.998645     0.999577     0.999578 
           8     0.030864    32.400002     0.999075     0.999865     0.998558     0.999075     0.999117 
           9     0.034722    28.800001     0.998728     0.999774     0.997590     0.998728     0.998790 
          10     0.038580    25.920001     0.998108     0.999688     0.996680     0.998108     0.998103 
          11     0.042438    23.563637     0.997726     0.999539     0.995099     0.997726     0.997666 
          12     0.046296    21.600001     0.997364     0.999237     0.991906     0.997364     0.997240 
          13     0.050154    19.938462     0.996051     0.998593     0.985169     0.996051     0.995862 
          14     0.054012    18.514287     0.994476     0.999107     0.990542     0.994476     0.994396 
          15     0.057870    17.280001     0.994373     0.998635     0.985605     0.994373     0.994198 
          16     0.061728    16.200001     0.992757     0.998216     0.981269     0.992757     0.992878 
          17     0.065586    15.247060     0.992193     0.998600     0.985246     0.992193     0.992699 
          18     0.069444    14.400001     0.992704     0.998713     0.986425     0.992704     0.992958 
          19     0.073302    13.642106     0.991945     0.998360     0.982758     0.991945     0.991926 
          20     0.077160    12.960001     0.990929     0.997833     0.977323     0.990929     0.990785 
          21     0.081019    12.342858     0.991002     0.997501     0.973941     0.991002     0.990824 
          22     0.084877    11.781819     0.990647     0.997427     0.973187     0.990647     0.990587 
          23     0.088735    11.269566     0.991452     0.997574     0.974676     0.991452     0.991631 
          24     0.092593    10.800001     0.991913     0.998021     0.979262     0.991913     0.992136 
          25     0.096451    10.368000     0.989423     0.997846     0.977459     0.989423     0.989610 
          26     0.100309     9.969231     0.985578     0.995425     0.953206     0.985578     0.985552 
          27     0.104167     9.600000     0.983887     0.996444     0.963281     0.983887     0.983675 
          28     0.108025     9.257143     0.983439     0.996192     0.960769     0.983439     0.982969 
          29     0.111883     8.937931     0.980389     0.994033     0.939737     0.980389     0.979492 
          30     0.115741     8.640000     0.973933     0.991339     0.914638     0.973933     0.973323 
          31     0.119599     8.361291     0.969771     0.991020     0.911747     0.969771     0.971058 
          32     0.123457     8.100000     0.963449     0.989946     0.902133     0.963449     0.964644 
          33     0.127315     7.854546     0.953589     0.984009     0.852087     0.953589     0.952286 
          34     0.131173     7.623530     0.949708     0.985360     0.863028     0.949708     0.949221 
          35     0.135031     7.405715     0.947286     0.985513     0.864289     0.947286     0.947963 
          36     0.138889     7.200000     0.929319     0.978515     0.810017     0.929319     0.920049 
          37     0.142747     7.005406     0.905431     0.962422     0.705676     0.905431     0.832010 
          38     0.146605     6.821053     0.890784     0.957597     0.678881     0.890784     0.642581 
          39     0.150463     6.646154     0.798750     0.964578     0.718250     0.879735     0.402410 
          40     0.154321     6.480000     0.814202     0.959052     0.686774     0.873406     0.318650 
          41     0.158179     6.321952     0.818071     0.958336     0.682873     0.859534     0.227908 
          42     0.162037     6.171429     0.796870     0.950206     0.641118     0.838471     0.204802 
          43     0.165895     6.027907     0.801843     0.940793     0.597998     0.840964     0.197423 
          44     0.169753     5.890909     0.815778     0.945395     0.618435     0.838454     0.123090 
          45     0.173611     5.760000     0.801394     0.937451     0.583864     0.822328     0.105406 
          46     0.177469     5.634783     0.793105     0.935862     0.577340     0.809036     0.077003 
          47     0.181327     5.514894     0.799709     0.930850     0.557559     0.809742     0.050092 
          48     0.185185     5.400000     0.812621     0.937015     0.582061     0.822386     0.052113 
          49     0.189043     5.289796     0.834075     0.945728     0.619962     0.839045     0.029953 
          50     0.192901     5.184000     0.842354     0.945933     0.620905     0.846645     0.027217 
          51     0.196759     5.082353     0.844240     0.947984     0.630467     0.847826     0.023020 
          52     0.200617     4.984616     0.836705     0.940278     0.595779     0.838896     0.013413 
          53     0.204475     4.890566     0.814805     0.930226     0.555177     0.817072     0.012238 
          54     0.208333     4.800000     0.799049     0.931697     0.560822     0.802810     0.018720 
          55     0.212191     4.712727     0.790863     0.927077     0.543409     0.797137     0.029996 
          56     0.216049     4.628572     0.782483     0.918388     0.513019     0.787650     0.023757 
          57     0.219907     4.547369     0.777384     0.914393     0.499983     0.779117     0.007785 
          58     0.223765     4.468966     0.768272     0.901185     0.460557     0.772784     0.019471 
          59     0.227623     4.393221     0.735638     0.893085     0.438829     0.741249     0.021227 
          60     0.231481     4.320000     0.692470     0.869535     0.384213     0.696828     0.014172 
          61     0.235339     4.249181     0.677250     0.843317     0.335048     0.680821     0.011063 
          62     0.239198     4.180645     0.667700     0.835519     0.322283     0.666127     -0.00473 
          63     0.243056     4.114286     0.622277     0.829472     0.312883     0.620180     -0.00555 
          64     0.246914     4.050000     0.571533     0.784235     0.253877     0.571757 5.234031e-04 
          65     0.250772     3.987692     0.522233     0.710512     0.186838     0.531340     0.019062 
          66     0.254630     3.927273     0.481141     0.711065     0.187247     0.495075     0.026855 
          67     0.258488     3.868657     0.465849     0.688728     0.171593     0.475470     0.018013 
          68     0.262346     3.811765     0.419203     0.633484     0.139270     0.433375     0.024402 
          69     0.266204     3.756522     0.383528     0.615405     0.130281     0.395809     0.019921 
          70     0.270062     3.702857     0.372296     0.601268     0.123704     0.376969     0.007444 
          71     0.273920     3.650704     0.346791     0.505625     0.087379     0.351641     0.007425 
          72     0.277778     3.600000     0.309440     0.441876     0.069003     0.315325     0.008522 
          73     0.281636     3.550685     0.248486     0.406689     0.060300     0.250337     0.002463 
          74     0.285494     3.502703     0.202328     0.371699     0.052476     0.199229     -0.00389 
          75     0.289352     3.456000     0.175390     0.353447     0.048685     0.176714     0.001607 
          76     0.293210     3.410526     0.145452     0.242846     0.029151     0.150702     0.006143 
          77     0.297068     3.366234     0.115392     0.153207     0.016655     0.129158     0.015562 
          78     0.300926     3.323077     0.104796     0.177885     0.019854     0.121171     0.018291 
          79     0.304784     3.281013     0.079347     0.178092     0.019881     0.091671     0.013385 
          80     0.308642     3.240000     0.070108     0.068182     0.006803     0.072954     0.003060 
          81     0.312500     3.200000     0.066538     0.152549     0.016572     0.066391 -1.57877e-04 
          82     0.316358     3.160976     0.082942     0.076715     0.007718     0.082182 -8.28841e-04 
          83     0.320216     3.122892     0.083804     0.168606     0.018631     0.077601     -0.00677 
          84     0.324074     3.085714     0.045686     0.095792     0.009820     0.041935     -0.00393 
          85     0.327932     3.049412     0.014301     0.232759     0.027616     0.010380     -0.00398 
          86     0.331790     3.013954     0.008222     -0.02823     -0.00258     0.004717     -0.00353 
          87     0.335648     2.979310     0.022241     -0.05933     -0.00527     0.016957     -0.00540 
          88     0.339506     2.945455     0.019835     0.105849     0.010961     0.019091 -7.58734e-04 
          89     0.343364     2.912360     0.006934     0.089957     0.009169     0.010896     0.003989 
          90     0.347222     2.880000 2.704068e-04     0.069304     0.006923     0.004910     0.004641 
          91     0.351080     2.848352     -0.02376     0.017988     0.001712     -0.01255     0.010948 
          92     0.354938     2.817391     -0.03478     -0.03607     -0.00327     -0.02322     0.011166 
          93     0.358796     2.787097     -0.02232     -0.13167     -0.01101     -0.01355     0.008573 
          94     0.362654     2.757447     -0.00485     -0.08640     -0.00750     0.001220     0.006039 
          95     0.366512     2.728421     -0.01429     0.047865     0.004684     -0.00119     0.012909 
          96     0.370370     2.700000     -0.01339     0.020866     0.001991     -0.00380     0.009467 
 

# version 50001

data_guinier

loop_ 
_rlnResolutionSquared #1 
_rlnLogAmplitudesOriginal #2 
_rlnLogAmplitudesWeighted #3 
    0.000000    -26.12476    -26.12476 
1.488435e-05     -4.81880     -4.81903 
5.953741e-05     -5.92028     -5.92074 
1.339592e-04     -6.03521     -6.03534 
2.381496e-04     -5.98794     -5.98798 
3.721088e-04     -6.39902     -6.39904 
5.358367e-04     -6.83704     -6.83709 
7.293333e-04     -7.13238     -7.13248 
9.525986e-04     -7.23953     -7.23976 
    0.001206     -7.45909     -7.45941 
    0.001488     -7.49575     -7.49622 
    0.001801     -7.71969     -7.72026 
    0.002143     -8.02300     -8.02366 
    0.002515     -8.17607     -8.17706 
    0.002917     -7.95473     -7.95611 
    0.003349     -8.02071     -8.02212 
    0.003810     -8.10979     -8.11161 
    0.004302     -8.17349     -8.17545 
    0.004823     -8.08172     -8.08355 
    0.005373     -8.06539     -8.06742 
    0.005954     -7.99000     -7.99228 
    0.006564     -8.00869     -8.01096 
    0.007204     -8.11891     -8.12126 
    0.007874     -8.07384     -8.07600 
    0.008573     -7.92174     -7.92378 
    0.009303     -7.93921     -7.94187 
    0.010062     -8.19925     -8.20289 
    0.010851     -8.13183     -8.13591 
    0.011669     -8.20179     -8.20598 
    0.012518     -8.35437     -8.35935 
    0.013396     -8.41996     -8.42660 
    0.014304     -8.47086     -8.47859 
    0.015242     -8.56103     -8.57043 
    0.016209     -8.66816     -8.68018 
    0.017206     -8.62822     -8.64128 
    0.018233     -8.64806     -8.66179 
    0.019290     -8.79024     -8.80890 
    0.020377     -8.92385     -8.94930 
    0.021493     -9.00583     -9.03558 
    0.022639     -8.91390     -8.97323 
    0.023815     -8.93757     -8.99160 
    0.025021     -8.94946     -9.00218 
    0.026256     -8.97914     -9.03912 
    0.027521     -9.03156     -9.08981 
    0.028816     -8.96937     -9.02286 
    0.030141     -8.99043     -9.04884 
    0.031495     -8.97490     -9.03620 
    0.032880     -8.96691     -9.02591 
    0.034294     -8.90787     -8.96243 
    0.035737     -8.83907     -8.88649 
    0.037211     -8.80157     -8.84630 
    0.038714     -8.77229     -8.81641 
    0.040247     -8.81019     -8.85674 
    0.041810     -8.84298     -8.89680 
    0.043403     -8.82095     -8.88017 
    0.045025     -8.80153     -8.86362 
    0.046677     -8.81934     -8.88441 
    0.048359     -8.82188     -8.88879 
    0.050071     -8.86515     -8.93538 
    0.051812     -8.89173     -8.97435 
    0.053584     -8.95641     -9.05668 
    0.055385     -9.01389     -9.12075 
    0.057215     -9.00777     -9.11888 
    0.059076     -9.02134     -9.15387 
    0.060966     -9.06264     -9.22181 
    0.062886     -9.12695     -9.31529 
    0.064836     -9.12969     -9.34532 
    0.066816     -9.14640     -9.37300 
    0.068825     -9.16553     -9.42871 
    0.070864     -9.16320     -9.45812 
    0.072933     -9.17748     -9.48319 
    0.075032     -9.21104     -9.54285 
    0.077160     -9.22662     -9.60134 
    0.079319     -9.23664     -9.69722 
    0.081507     -9.24147     -9.78596 
    0.083724     -9.25753     -9.86212 
    0.085972     -9.25885     -9.94413 
    0.088249     -9.27150    -10.05924 
    0.090556     -9.27621    -10.10734 
    0.092893     -9.26418    -10.22275 
    0.095260     -9.28045    -10.29661 
    0.097656     -9.27416    -10.31479 
    0.100082     -9.27750    -10.21557 
    0.102538     -9.25949    -10.19280 
    0.105024     -9.26197    -10.48072 
    0.107539     -9.25347    -11.03770 
    0.110085     -9.26653    -11.32454 
    0.112660     -9.25953    -10.82687 
    0.115264     -9.24871    -10.87212 
    0.117899     -9.24165    -11.38419 
    0.120563     -9.23446    -12.99581 
    0.123257     -9.23324    -99.00000 
    0.125981     -9.23115    -99.00000 
    0.128735     -9.23322    -99.00000 
    0.131518     -9.22833    -99.00000 
    0.134331     -9.22622    -99.00000 
    0.137174     -9.49912    -99.00000 
 
