
# version 50001

data_TS_01

loop_ 
_rlnMicrographMovieName #1 
_rlnTomoTiltMovieFrameCount #2 
_rlnTomoNominalStageTiltAngle #3 
_rlnTomoNominalTiltAxisAngle #4 
_rlnMicrographPreExposure #5 
_rlnTomoNominalDefocus #6 
_rlnCtfPowerSpectrum #7 
_rlnMicrographNameEven #8 
_rlnMicrographNameOdd #9 
_rlnMicrographName #10 
_rlnMicrographMetadata #11 
_rlnAccumMotionTotal #12 
_rlnAccumMotionEarly #13 
_rlnAccumMotionLate #14 
_rlnCtfImage #15 
_rlnDefocusU #16 
_rlnDefocusV #17 
_rlnCtfAstigmatism #18 
_rlnDefocusAngle #19 
_rlnCtfFigureOfMerit #20 
_rlnCtfMaxResolution #21 
_rlnCtfIceRingDensity #22 
_rlnTomoXTilt #23 
_rlnTomoYTilt #24 
_rlnTomoZRot #25 
_rlnTomoXShiftAngst #26 
_rlnTomoYShiftAngst #27 
_rlnCtfScalefactor #28 
frames/TS_01_038_-57.0.mrc            8    -56.99850    85.000000   114.000000     -4.00000 MotionCorr/job002/frames/TS_01_038_-57_0_PS.mrc MotionCorr/job002/frames/TS_01_038_-57_0_EVN.mrc MotionCorr/job002/frames/TS_01_038_-57_0_ODD.mrc MotionCorr/job002/frames/TS_01_038_-57_0.mrc MotionCorr/job002/frames/TS_01_038_-57_0.star     6.867403     0.000000     6.867403 CtfFind/job003/frames/TS_01_038_-57_0_PS.ctf:mrc 39545.870381 39868.058630   109.371094   119.382548     0.098171    14.626481     0.624420     -0.13154    -57.05395    85.188502    36.434426   107.915804     0.343208 
frames/TS_01_035_-54.0.mrc            8    -53.99890    85.000000   105.000000     -4.00000 MotionCorr/job002/frames/TS_01_035_-54_0_PS.mrc MotionCorr/job002/frames/TS_01_035_-54_0_EVN.mrc MotionCorr/job002/frames/TS_01_035_-54_0_ODD.mrc MotionCorr/job002/frames/TS_01_035_-54_0.mrc MotionCorr/job002/frames/TS_01_035_-54_0.star     8.737374     0.000000     8.737374 CtfFind/job003/frames/TS_01_035_-54_0_PS.ctf:mrc 38762.082338 38964.636450   140.769531   107.278392     0.089442    14.931199     0.549690     -0.23444    -54.06505    85.286106    20.754955    92.532465     0.393286 
frames/TS_01_034_-51.0.mrc            8    -50.99880    85.000000   102.000000     -4.00000 MotionCorr/job002/frames/TS_01_034_-51_0_PS.mrc MotionCorr/job002/frames/TS_01_034_-51_0_EVN.mrc MotionCorr/job002/frames/TS_01_034_-51_0_ODD.mrc MotionCorr/job002/frames/TS_01_034_-51_0.mrc MotionCorr/job002/frames/TS_01_034_-51_0.star     9.400595     0.000000     9.400595 CtfFind/job003/frames/TS_01_034_-51_0_PS.ctf:mrc 39784.378500 40076.479768    40.027344   122.005075     0.126386    12.573642     0.511440     -0.17202    -51.06746    85.246743    29.769671   115.795059     0.397910 
frames/TS_01_031_-48.0.mrc            8    -47.99860    85.000000    93.000000     -4.00000 MotionCorr/job002/frames/TS_01_031_-48_0_PS.mrc MotionCorr/job002/frames/TS_01_031_-48_0_EVN.mrc MotionCorr/job002/frames/TS_01_031_-48_0_ODD.mrc MotionCorr/job002/frames/TS_01_031_-48_0.mrc MotionCorr/job002/frames/TS_01_031_-48_0.star     8.097709     0.000000     8.097709 CtfFind/job003/frames/TS_01_031_-48_0_PS.ctf:mrc 40191.199050 40792.751675   254.808594   118.664683     0.095329    11.559638     0.848440     -0.15982    -48.06513    85.243180    20.074919    96.711997     0.482232 
frames/TS_01_030_-45.0.mrc            8    -44.99900    85.000000    90.000000     -4.00000 MotionCorr/job002/frames/TS_01_030_-45_0_PS.mrc MotionCorr/job002/frames/TS_01_030_-45_0_EVN.mrc MotionCorr/job002/frames/TS_01_030_-45_0_ODD.mrc MotionCorr/job002/frames/TS_01_030_-45_0.mrc MotionCorr/job002/frames/TS_01_030_-45_0.star     7.706032     0.000000     7.706032 CtfFind/job003/frames/TS_01_030_-45_0_PS.ctf:mrc 39603.764888 39943.621382   242.738281    70.757423     0.064779    11.198400     0.478040     -0.15916    -45.07679    85.248638    26.789960   115.293982     0.481112 
frames/TS_01_027_-42.0.mrc            8    -41.99890    85.000000    81.000000     -4.00000 MotionCorr/job002/frames/TS_01_027_-42_0_PS.mrc MotionCorr/job002/frames/TS_01_027_-42_0_EVN.mrc MotionCorr/job002/frames/TS_01_027_-42_0_ODD.mrc MotionCorr/job002/frames/TS_01_027_-42_0.mrc MotionCorr/job002/frames/TS_01_027_-42_0.star     7.616364     0.000000     7.616364 CtfFind/job003/frames/TS_01_027_-42_0_PS.ctf:mrc 39591.383717 39882.848759   129.660156   102.410033     0.060071    11.198400     0.681970     -0.11827    -42.06051    85.218924    16.572071    93.378187     0.504385 
frames/TS_01_026_-39.0.mrc            8    -38.99870    85.000000    78.000000     -4.00000 MotionCorr/job002/frames/TS_01_026_-39_0_PS.mrc MotionCorr/job002/frames/TS_01_026_-39_0_EVN.mrc MotionCorr/job002/frames/TS_01_026_-39_0_ODD.mrc MotionCorr/job002/frames/TS_01_026_-39_0.mrc MotionCorr/job002/frames/TS_01_026_-39_0.star     6.881871     0.000000     6.881871 CtfFind/job003/frames/TS_01_026_-39_0_PS.ctf:mrc 39146.643723 39898.591492   408.003906   129.874067     0.058877     9.685102     0.421770     -0.10721    -39.06135    85.214415    21.669987   115.144634     0.526517 
frames/TS_01_023_-36.0.mrc            8    -35.99860    85.000000    69.000000     -4.00000 MotionCorr/job002/frames/TS_01_023_-36_0_PS.mrc MotionCorr/job002/frames/TS_01_023_-36_0_EVN.mrc MotionCorr/job002/frames/TS_01_023_-36_0_ODD.mrc MotionCorr/job002/frames/TS_01_023_-36_0.mrc MotionCorr/job002/frames/TS_01_023_-36_0.star     6.251948     0.000000     6.251948 CtfFind/job003/frames/TS_01_023_-36_0_PS.ctf:mrc 39313.772275 39957.319837   390.214844    98.820050     0.068964    10.094332     0.587930     -0.11924    -36.05839    85.219114    12.912024    88.152897     0.654376 
frames/TS_01_022_-33.0.mrc            8    -32.99900    85.000000    66.000000     -4.00000 MotionCorr/job002/frames/TS_01_022_-33_0_PS.mrc MotionCorr/job002/frames/TS_01_022_-33_0_EVN.mrc MotionCorr/job002/frames/TS_01_022_-33_0_ODD.mrc MotionCorr/job002/frames/TS_01_022_-33_0.mrc MotionCorr/job002/frames/TS_01_022_-33_0.star     5.508498     0.000000     5.508498 CtfFind/job003/frames/TS_01_022_-33_0_PS.ctf:mrc 39370.920871 39735.539205   131.757812    89.203770     0.068570     9.072121     1.470770     -0.12942    -33.05618    85.226847    17.121358   109.814675     0.723977 
frames/TS_01_019_-30.0.mrc            8    -29.99880    85.000000    57.000000     -4.00000 MotionCorr/job002/frames/TS_01_019_-30_0_PS.mrc MotionCorr/job002/frames/TS_01_019_-30_0_EVN.mrc MotionCorr/job002/frames/TS_01_019_-30_0_ODD.mrc MotionCorr/job002/frames/TS_01_019_-30_0.mrc MotionCorr/job002/frames/TS_01_019_-30_0.star     5.991338     0.000000     5.991338 CtfFind/job003/frames/TS_01_019_-30_0_PS.ctf:mrc 39124.494311 39788.926444   401.738281   114.718869     0.061857     9.188430     0.461620     -0.13299    -30.06001    85.228336     6.711834    80.586184     0.764680 
frames/TS_01_018_-27.0.mrc            8    -26.99920    85.000000    54.000000     -4.00000 MotionCorr/job002/frames/TS_01_018_-27_0_PS.mrc MotionCorr/job002/frames/TS_01_018_-27_0_EVN.mrc MotionCorr/job002/frames/TS_01_018_-27_0_ODD.mrc MotionCorr/job002/frames/TS_01_018_-27_0.mrc MotionCorr/job002/frames/TS_01_018_-27_0.star     3.764705     0.000000     3.764705 CtfFind/job003/frames/TS_01_018_-27_0_PS.ctf:mrc 39262.001807 39810.643572   461.804688   140.631572     0.043537     7.875797     0.967460     -0.11553    -27.05542    85.226897     9.465648   101.924889     0.792694 
frames/TS_01_015_-24.0.mrc            8    -23.99860    85.000000    45.000000     -4.00000 MotionCorr/job002/frames/TS_01_015_-24_0_PS.mrc MotionCorr/job002/frames/TS_01_015_-24_0_EVN.mrc MotionCorr/job002/frames/TS_01_015_-24_0_ODD.mrc MotionCorr/job002/frames/TS_01_015_-24_0.mrc MotionCorr/job002/frames/TS_01_015_-24_0.star     4.374630     0.000000     4.374630 CtfFind/job003/frames/TS_01_015_-24_0_PS.ctf:mrc 39316.829417 39974.570080   826.437500   136.126900     0.031468     9.072121     0.625670     -0.13794    -24.00972    85.217480     2.028578    72.264977     0.860642 
frames/TS_01_014_-21.0.mrc            8    -20.99890    85.000000    42.000000     -4.00000 MotionCorr/job002/frames/TS_01_014_-21_0_PS.mrc MotionCorr/job002/frames/TS_01_014_-21_0_EVN.mrc MotionCorr/job002/frames/TS_01_014_-21_0_ODD.mrc MotionCorr/job002/frames/TS_01_014_-21_0.mrc MotionCorr/job002/frames/TS_01_014_-21_0.star     3.208567     0.000000     3.208567 CtfFind/job003/frames/TS_01_014_-21_0_PS.ctf:mrc 39221.807444 39964.361789   438.785156   135.498117     0.059953     6.575207     0.532320     -0.07902    -21.00358    85.222570     8.736745    99.925740     0.894821 
frames/TS_01_011_-18.0.mrc            8    -17.99880    85.000000    33.000000     -4.00000 MotionCorr/job002/frames/TS_01_011_-18_0_PS.mrc MotionCorr/job002/frames/TS_01_011_-18_0_EVN.mrc MotionCorr/job002/frames/TS_01_011_-18_0_ODD.mrc MotionCorr/job002/frames/TS_01_011_-18_0.mrc MotionCorr/job002/frames/TS_01_011_-18_0.star     2.927541     0.000000     2.927541 CtfFind/job003/frames/TS_01_011_-18_0_PS.ctf:mrc 39262.867592 39993.062502   570.011719   140.589487     0.051604     8.052782     0.600150     -0.07585    -18.00802    85.218291     3.821627    69.829191     1.007427 
frames/TS_01_010_-15.0.mrc            8    -14.99870    85.000000    30.000000     -4.00000 MotionCorr/job002/frames/TS_01_010_-15_0_PS.mrc MotionCorr/job002/frames/TS_01_010_-15_0_EVN.mrc MotionCorr/job002/frames/TS_01_010_-15_0_ODD.mrc MotionCorr/job002/frames/TS_01_010_-15_0.mrc MotionCorr/job002/frames/TS_01_010_-15_0.star     3.144113     0.000000     3.144113 CtfFind/job003/frames/TS_01_010_-15_0_PS.ctf:mrc 39329.908720 39817.690224    58.691406   130.414798     0.057074     6.891323     1.495470     -0.08283    -15.00169    85.226046     7.560545    75.978322     0.991079 
frames/TS_01_007_-12.0.mrc            8    -11.99850    85.000000    21.000000     -4.00000 MotionCorr/job002/frames/TS_01_007_-12_0_PS.mrc MotionCorr/job002/frames/TS_01_007_-12_0_EVN.mrc MotionCorr/job002/frames/TS_01_007_-12_0_ODD.mrc MotionCorr/job002/frames/TS_01_007_-12_0.mrc MotionCorr/job002/frames/TS_01_007_-12_0.star     2.299021     0.000000     2.299021 CtfFind/job003/frames/TS_01_007_-12_0_PS.ctf:mrc 39347.368798 39771.733208   320.023438   137.287660     0.039666     7.544185     1.236110     -0.05222    -12.00345    85.226064     3.924614    70.991428     1.055976 
frames/TS_01_006_-9.0.mrc            8     -8.99890    85.000000    18.000000     -4.00000 MotionCorr/job002/frames/TS_01_006_-9_0_PS.mrc MotionCorr/job002/frames/TS_01_006_-9_0_EVN.mrc MotionCorr/job002/frames/TS_01_006_-9_0_ODD.mrc MotionCorr/job002/frames/TS_01_006_-9_0.mrc MotionCorr/job002/frames/TS_01_006_-9_0.star     2.231222     0.000000     2.231222 CtfFind/job003/frames/TS_01_006_-9_0_PS.ctf:mrc 39147.275148 39828.151135   974.921875   146.905458     0.041542     7.544185     1.137880     -0.04848     -8.99277    85.231959     6.517063    45.436665     1.098716 
frames/TS_01_003_-6.0.mrc            8     -5.99876    85.000000     9.000000     -4.00000 MotionCorr/job002/frames/TS_01_003_-6_0_PS.mrc MotionCorr/job002/frames/TS_01_003_-6_0_EVN.mrc MotionCorr/job002/frames/TS_01_003_-6_0_ODD.mrc MotionCorr/job002/frames/TS_01_003_-6_0.mrc MotionCorr/job002/frames/TS_01_003_-6_0.star     3.237798     0.000000     3.237798 CtfFind/job003/frames/TS_01_003_-6_0_PS.ctf:mrc 39063.814801 39862.019582   337.300781   141.467064     0.045582     7.096016     0.480650     -0.05352     -5.97035    85.235707     4.630740    47.082565     1.075820 
frames/TS_01_002_-3.0.mrc            8     -2.99863    85.000000     6.000000     -4.00000 MotionCorr/job002/frames/TS_01_002_-3_0_PS.mrc MotionCorr/job002/frames/TS_01_002_-3_0_EVN.mrc MotionCorr/job002/frames/TS_01_002_-3_0_ODD.mrc MotionCorr/job002/frames/TS_01_002_-3_0.mrc MotionCorr/job002/frames/TS_01_002_-3_0.star     2.008728     0.000000     2.008728 CtfFind/job003/frames/TS_01_002_-3_0_PS.ctf:mrc 38943.382288 39412.207013   250.898438   123.264062     0.043894     6.232153     1.195820     -0.04327     -2.95915    85.247108     -0.89425    15.135225     1.073042 
frames/TS_01_000_0.0.mrc            8     0.001000    85.000000     0.000000     -4.00000 MotionCorr/job002/frames/TS_01_000_0_0_PS.mrc MotionCorr/job002/frames/TS_01_000_0_0_EVN.mrc MotionCorr/job002/frames/TS_01_000_0_0_ODD.mrc MotionCorr/job002/frames/TS_01_000_0_0.mrc MotionCorr/job002/frames/TS_01_000_0_0.star     2.297631     1.007983     1.289649 CtfFind/job003/frames/TS_01_000_0_0_PS.ctf:mrc 38909.244540 39071.619251   105.000000   147.769569     0.035810     7.026447     0.605850     -0.02707     0.037363    85.255281     1.231943     -9.55723     1.063128 
frames/TS_01_001_3.0.mrc            8     3.001130    85.000000     3.000000     -4.00000 MotionCorr/job002/frames/TS_01_001_3_0_PS.mrc MotionCorr/job002/frames/TS_01_001_3_0_EVN.mrc MotionCorr/job002/frames/TS_01_001_3_0_ODD.mrc MotionCorr/job002/frames/TS_01_001_3_0.mrc MotionCorr/job002/frames/TS_01_001_3_0.star     2.384960     0.000000     2.384960 CtfFind/job003/frames/TS_01_001_3_0_PS.ctf:mrc 39257.206338 39427.662864    40.277344   133.463155     0.045554     6.575207     0.570030     -0.00953     3.043184    85.262898     -3.62979    -42.57780     1.116077 
frames/TS_01_004_6.0.mrc            8     6.001260    85.000000    12.000000     -4.00000 MotionCorr/job002/frames/TS_01_004_6_0_PS.mrc MotionCorr/job002/frames/TS_01_004_6_0_EVN.mrc MotionCorr/job002/frames/TS_01_004_6_0_ODD.mrc MotionCorr/job002/frames/TS_01_004_6_0.mrc MotionCorr/job002/frames/TS_01_004_6_0.star     2.323928     0.000000     2.323928 CtfFind/job003/frames/TS_01_004_6_0_PS.ctf:mrc 39171.832650 39533.236884   211.851562   138.822886     0.050940     6.958229     0.600390     -0.01808     6.068246    85.265328     -7.39704    -66.08028     1.158043 
frames/TS_01_005_9.0.mrc            8     9.001400    85.000000    15.000000     -4.00000 MotionCorr/job002/frames/TS_01_005_9_0_PS.mrc MotionCorr/job002/frames/TS_01_005_9_0_EVN.mrc MotionCorr/job002/frames/TS_01_005_9_0_ODD.mrc MotionCorr/job002/frames/TS_01_005_9_0.mrc MotionCorr/job002/frames/TS_01_005_9_0.star     2.180758     0.000000     2.180758 CtfFind/job003/frames/TS_01_005_9_0_PS.ctf:mrc 39081.787425 39629.033058   895.097656   137.304053     0.047935     6.232153     0.796060 6.934451e-05     9.056623    85.277229     -8.20952    -59.26092     1.152139 
frames/TS_01_008_12.0.mrc            8    12.000500    85.000000    24.000000     -4.00000 MotionCorr/job002/frames/TS_01_008_12_0_PS.mrc MotionCorr/job002/frames/TS_01_008_12_0_EVN.mrc MotionCorr/job002/frames/TS_01_008_12_0_ODD.mrc MotionCorr/job002/frames/TS_01_008_12_0.mrc MotionCorr/job002/frames/TS_01_008_12_0.star     2.105090     0.000000     2.105090 CtfFind/job003/frames/TS_01_008_12_0_PS.ctf:mrc 39105.840519 39626.383484   249.871094   136.777259     0.068617     6.761298     0.636830     0.010058    12.027650    85.279705     -9.58889    -86.92492     1.039167 
frames/TS_01_009_15.0.mrc            8    15.000700    85.000000    27.000000     -4.00000 MotionCorr/job002/frames/TS_01_009_15_0_PS.mrc MotionCorr/job002/frames/TS_01_009_15_0_EVN.mrc MotionCorr/job002/frames/TS_01_009_15_0_ODD.mrc MotionCorr/job002/frames/TS_01_009_15_0.mrc MotionCorr/job002/frames/TS_01_009_15_0.star     2.645439     0.000000     2.645439 CtfFind/job003/frames/TS_01_009_15_0_PS.ctf:mrc 39056.448603 39599.362487   246.207031   146.186151     0.060885     6.636089     1.134630     -0.00309    15.033505    85.282909    -12.45597    -73.45412     1.053643 
frames/TS_01_012_18.0.mrc            8    18.000800    85.000000    36.000000     -4.00000 MotionCorr/job002/frames/TS_01_012_18_0_PS.mrc MotionCorr/job002/frames/TS_01_012_18_0_EVN.mrc MotionCorr/job002/frames/TS_01_012_18_0_ODD.mrc MotionCorr/job002/frames/TS_01_012_18_0.mrc MotionCorr/job002/frames/TS_01_012_18_0.star     3.365260     0.000000     3.365260 CtfFind/job003/frames/TS_01_012_18_0_PS.ctf:mrc 39173.675084 39602.085962   126.351562   142.764082     0.056260     8.144291     0.656890     0.025114    18.007688    85.303270    -16.07904   -105.03987     0.978579 
frames/TS_01_013_21.0.mrc            8    21.000900    85.000000    39.000000     -4.00000 MotionCorr/job002/frames/TS_01_013_21_0_PS.mrc MotionCorr/job002/frames/TS_01_013_21_0_EVN.mrc MotionCorr/job002/frames/TS_01_013_21_0_ODD.mrc MotionCorr/job002/frames/TS_01_013_21_0.mrc MotionCorr/job002/frames/TS_01_013_21_0.star     3.806968     0.000000     3.806968 CtfFind/job003/frames/TS_01_013_21_0_PS.ctf:mrc 39291.058605 39842.251370   205.695312   127.842390     0.045835     7.313241     0.594060     0.037416    21.003157    85.313145    -16.79703   -103.67795     0.951654 
frames/TS_01_016_24.0.mrc            8    24.000600    85.000000    48.000000     -4.00000 MotionCorr/job002/frames/TS_01_016_24_0_PS.mrc MotionCorr/job002/frames/TS_01_016_24_0_EVN.mrc MotionCorr/job002/frames/TS_01_016_24_0_ODD.mrc MotionCorr/job002/frames/TS_01_016_24_0.mrc MotionCorr/job002/frames/TS_01_016_24_0.star     3.305467     0.000000     3.305467 CtfFind/job003/frames/TS_01_016_24_0_PS.ctf:mrc 39230.998821 39749.642318   309.660156   167.212942     0.074357     8.052782     1.427420     0.059517    24.000573    85.319813    -19.33144   -122.44997     0.872314 
frames/TS_01_017_27.0.mrc            8    27.000700    85.000000    51.000000     -4.00000 MotionCorr/job002/frames/TS_01_017_27_0_PS.mrc MotionCorr/job002/frames/TS_01_017_27_0_EVN.mrc MotionCorr/job002/frames/TS_01_017_27_0_ODD.mrc MotionCorr/job002/frames/TS_01_017_27_0.mrc MotionCorr/job002/frames/TS_01_017_27_0.star     4.514617     0.000000     4.514617 CtfFind/job003/frames/TS_01_017_27_0_PS.ctf:mrc 39045.921088 39593.015251   128.867188   147.915926     0.057817     8.958720     1.250290     0.086313    26.999352    85.343211    -16.90102   -127.99243     0.831141 
frames/TS_01_020_30.0.mrc            8    30.000800    85.000000    60.000000     -4.00000 MotionCorr/job002/frames/TS_01_020_30_0_PS.mrc MotionCorr/job002/frames/TS_01_020_30_0_EVN.mrc MotionCorr/job002/frames/TS_01_020_30_0_ODD.mrc MotionCorr/job002/frames/TS_01_020_30_0.mrc MotionCorr/job002/frames/TS_01_020_30_0.star     4.122379     0.000000     4.122379 CtfFind/job003/frames/TS_01_020_30_0_PS.ctf:mrc 38783.004540 39463.004406   696.796875   117.678345     0.053755     9.430231     0.488000     0.142341    30.003922    85.373374    -27.42261   -139.46759     0.749362 
frames/TS_01_021_33.0.mrc            8    33.001000    85.000000    63.000000     -4.00000 MotionCorr/job002/frames/TS_01_021_33_0_PS.mrc MotionCorr/job002/frames/TS_01_021_33_0_EVN.mrc MotionCorr/job002/frames/TS_01_021_33_0_ODD.mrc MotionCorr/job002/frames/TS_01_021_33_0.mrc MotionCorr/job002/frames/TS_01_021_33_0.star     4.487542     0.000000     4.487542 CtfFind/job003/frames/TS_01_021_33_0_PS.ctf:mrc 39182.797375 39650.430642   152.042969   113.892706     0.081110     8.848118     0.590140     0.112412    33.000364    85.366990    -20.93748   -126.39909     0.720715 
frames/TS_01_024_36.0.mrc            8    36.000600    85.000000    72.000000     -4.00000 MotionCorr/job002/frames/TS_01_024_36_0_PS.mrc MotionCorr/job002/frames/TS_01_024_36_0_EVN.mrc MotionCorr/job002/frames/TS_01_024_36_0_ODD.mrc MotionCorr/job002/frames/TS_01_024_36_0.mrc MotionCorr/job002/frames/TS_01_024_36_0.star     4.487724     0.000000     4.487724 CtfFind/job003/frames/TS_01_024_36_0_PS.ctf:mrc 38534.189479 39303.001191   435.519531   102.906427     0.072468    10.539670     0.864610     0.130810    36.000546    85.388520    -23.94351   -153.61474     0.625697 
frames/TS_01_025_39.0.mrc            8    39.000700    85.000000    75.000000     -4.00000 MotionCorr/job002/frames/TS_01_025_39_0_PS.mrc MotionCorr/job002/frames/TS_01_025_39_0_EVN.mrc MotionCorr/job002/frames/TS_01_025_39_0_ODD.mrc MotionCorr/job002/frames/TS_01_025_39_0.mrc MotionCorr/job002/frames/TS_01_025_39_0.star     5.025156     0.000000     5.025156 CtfFind/job003/frames/TS_01_025_39_0_PS.ctf:mrc 38732.879045 39740.715219   507.058594   119.115353     0.083311     9.954133     0.650820     0.127768    39.000094    85.401818    -10.22952   -135.87585     0.591107 
frames/TS_01_028_42.0.mrc            8    42.000900    85.000000    84.000000     -4.00000 MotionCorr/job002/frames/TS_01_028_42_0_PS.mrc MotionCorr/job002/frames/TS_01_028_42_0_EVN.mrc MotionCorr/job002/frames/TS_01_028_42_0_ODD.mrc MotionCorr/job002/frames/TS_01_028_42_0.mrc MotionCorr/job002/frames/TS_01_028_42_0.star     4.218339     0.000000     4.218339 CtfFind/job003/frames/TS_01_028_42_0_PS.ctf:mrc 38747.456712 39177.620242   295.824219   113.569882     0.102306    10.386921     0.533730     0.174138    42.001391    85.444791    -27.32440   -163.21626     0.590200 
frames/TS_01_029_45.0.mrc            8    45.001000    85.000000    87.000000     -4.00000 MotionCorr/job002/frames/TS_01_029_45_0_PS.mrc MotionCorr/job002/frames/TS_01_029_45_0_EVN.mrc MotionCorr/job002/frames/TS_01_029_45_0_ODD.mrc MotionCorr/job002/frames/TS_01_029_45_0.mrc MotionCorr/job002/frames/TS_01_029_45_0.star     5.827766     0.000000     5.827766 CtfFind/job003/frames/TS_01_029_45_0_PS.ctf:mrc 38593.350425 38964.905556   193.757812   139.731890     0.083501    10.238537     0.576610     0.154128    44.999746    85.453203    -12.27094   -144.64019     0.535778 
frames/TS_01_032_48.0.mrc            8    48.000600    85.000000    96.000000     -4.00000 MotionCorr/job002/frames/TS_01_032_48_0_PS.mrc MotionCorr/job002/frames/TS_01_032_48_0_EVN.mrc MotionCorr/job002/frames/TS_01_032_48_0_ODD.mrc MotionCorr/job002/frames/TS_01_032_48_0.mrc MotionCorr/job002/frames/TS_01_032_48_0.star     5.189981     0.000000     5.189981 CtfFind/job003/frames/TS_01_032_48_0_PS.ctf:mrc 38358.822251 38735.907127   264.953125   133.789363     0.103284    11.749141     1.007310     0.231014    47.998645    85.526368    -29.54206   -167.85553     0.527983 
frames/TS_01_033_51.0.mrc            8    51.000800    85.000000    99.000000     -4.00000 MotionCorr/job002/frames/TS_01_033_51_0_PS.mrc MotionCorr/job002/frames/TS_01_033_51_0_EVN.mrc MotionCorr/job002/frames/TS_01_033_51_0_ODD.mrc MotionCorr/job002/frames/TS_01_033_51_0.mrc MotionCorr/job002/frames/TS_01_033_51_0.star     6.903079     0.000000     6.903079 CtfFind/job003/frames/TS_01_033_51_0_PS.ctf:mrc 38989.886039 39420.810258   121.355469   109.641969     0.074141    12.356855     0.623900     0.132350    50.993956    85.477374    -11.20163   -142.40915     0.497225 
frames/TS_01_036_54.0.mrc            8    54.000900    85.000000   108.000000     -4.00000 MotionCorr/job002/frames/TS_01_036_54_0_PS.mrc MotionCorr/job002/frames/TS_01_036_54_0_EVN.mrc MotionCorr/job002/frames/TS_01_036_54_0_ODD.mrc MotionCorr/job002/frames/TS_01_036_54_0.mrc MotionCorr/job002/frames/TS_01_036_54_0.star     4.851630     0.000000     4.851630 CtfFind/job003/frames/TS_01_036_54_0_PS.ctf:mrc 38874.088477 39153.384893   162.777344   100.107912     0.105213    13.782646     0.538310     0.161915    53.993704    85.529628    -31.57088   -161.19032     0.419917 
frames/TS_01_037_57.0.mrc            8    57.000000    85.000000   111.000000     -4.00000 MotionCorr/job002/frames/TS_01_037_57_0_PS.mrc MotionCorr/job002/frames/TS_01_037_57_0_EVN.mrc MotionCorr/job002/frames/TS_01_037_57_0_ODD.mrc MotionCorr/job002/frames/TS_01_037_57_0.mrc MotionCorr/job002/frames/TS_01_037_57_0.star     5.856454     0.000000     5.856454 CtfFind/job003/frames/TS_01_037_57_0_PS.ctf:mrc 37648.584088 37928.327330     2.816406   116.667542     0.115731    14.626481     0.839010     0.192185    56.995084    85.591196    -13.55017   -136.55436     0.355316 
frames/TS_01_040_60.0.mrc            8    60.000600    85.000000   120.000000     -4.00000 MotionCorr/job002/frames/TS_01_040_60_0_PS.mrc MotionCorr/job002/frames/TS_01_040_60_0_EVN.mrc MotionCorr/job002/frames/TS_01_040_60_0_ODD.mrc MotionCorr/job002/frames/TS_01_040_60_0.mrc MotionCorr/job002/frames/TS_01_040_60_0.star     6.036839     0.000000     6.036839 CtfFind/job003/frames/TS_01_040_60_0_PS.ctf:mrc 38614.393254 38945.601734    95.328125   108.895648     0.159484    14.333951     1.524560     0.140978    59.992275    85.590596    -30.04858   -155.88363     0.313368 
 
