
# version 50001

data_TS_03

loop_ 
_rlnMicrographMovieName #1 
_rlnTomoTiltMovieFrameCount #2 
_rlnTomoNominalStageTiltAngle #3 
_rlnTomoNominalTiltAxisAngle #4 
_rlnMicrographPreExposure #5 
_rlnTomoNominalDefocus #6 
_rlnCtfPowerSpectrum #7 
_rlnMicrographNameEven #8 
_rlnMicrographNameOdd #9 
_rlnMicrographName #10 
_rlnMicrographMetadata #11 
_rlnAccumMotionTotal #12 
_rlnAccumMotionEarly #13 
_rlnAccumMotionLate #14 
_rlnCtfImage #15 
_rlnDefocusU #16 
_rlnDefocusV #17 
_rlnCtfAstigmatism #18 
_rlnDefocusAngle #19 
_rlnCtfFigureOfMerit #20 
_rlnCtfMaxResolution #21 
_rlnCtfIceRingDensity #22 
_rlnTomoXTilt #23 
_rlnTomoYTilt #24 
_rlnTomoZRot #25 
_rlnTomoXShiftAngst #26 
_rlnTomoYShiftAngst #27 
_rlnCtfScalefactor #28 
frames/TS_03_038_-57.0.mrc            8    -56.99900    85.000000   114.000000     -1.50000 MotionCorr/job002/frames/TS_03_038_-57_0_PS.mrc MotionCorr/job002/frames/TS_03_038_-57_0_EVN.mrc MotionCorr/job002/frames/TS_03_038_-57_0_ODD.mrc MotionCorr/job002/frames/TS_03_038_-57_0.mrc MotionCorr/job002/frames/TS_03_038_-57_0.star    96.111993     0.000000    96.111993 CtfFind/job003/frames/TS_03_038_-57_0_PS.ctf:mrc 15772.833749 16107.721202    91.772461   134.720558     0.015304    25.000000     0.530370     -0.17863    -57.07822    85.223808   -239.17153   -132.70156     0.383141 
frames/TS_03_035_-54.0.mrc            8    -53.99890    85.000000   105.000000     -1.50000 MotionCorr/job002/frames/TS_03_035_-54_0_PS.mrc MotionCorr/job002/frames/TS_03_035_-54_0_EVN.mrc MotionCorr/job002/frames/TS_03_035_-54_0_ODD.mrc MotionCorr/job002/frames/TS_03_035_-54_0.mrc MotionCorr/job002/frames/TS_03_035_-54_0.star    39.495946     0.000000    39.495946 CtfFind/job003/frames/TS_03_035_-54_0_PS.ctf:mrc 14877.895941 15307.236176    57.083984   126.596154     0.047231    25.000000     0.541930     -0.19120    -54.07561    85.256489    -62.86232   -110.95568     0.514875 
frames/TS_03_034_-51.0.mrc            8    -50.99930    85.000000   102.000000     -1.50000 MotionCorr/job002/frames/TS_03_034_-51_0_PS.mrc MotionCorr/job002/frames/TS_03_034_-51_0_EVN.mrc MotionCorr/job002/frames/TS_03_034_-51_0_ODD.mrc MotionCorr/job002/frames/TS_03_034_-51_0.mrc MotionCorr/job002/frames/TS_03_034_-51_0.star     8.906427     0.000000     8.906427 CtfFind/job003/frames/TS_03_034_-51_0_PS.ctf:mrc 12582.223506 13677.731755   539.439453   140.031538     0.074001    25.000000     0.540480     -0.22234    -51.09103    85.259163    15.172348    -53.25751     0.595773 
frames/TS_03_031_-48.0.mrc            8    -47.99910    85.000000    93.000000     -1.50000 MotionCorr/job002/frames/TS_03_031_-48_0_PS.mrc MotionCorr/job002/frames/TS_03_031_-48_0_EVN.mrc MotionCorr/job002/frames/TS_03_031_-48_0_ODD.mrc MotionCorr/job002/frames/TS_03_031_-48_0.mrc MotionCorr/job002/frames/TS_03_031_-48_0.star     5.301389     0.000000     5.301389 CtfFind/job003/frames/TS_03_031_-48_0_PS.ctf:mrc 12770.705184 13500.767142   424.787109   138.181860     0.070006     8.634910     0.616740     -0.19640    -48.09359    85.257322    16.733714    -57.82267     0.642900 
frames/TS_03_030_-45.0.mrc            8    -44.99900    85.000000    90.000000     -1.50000 MotionCorr/job002/frames/TS_03_030_-45_0_PS.mrc MotionCorr/job002/frames/TS_03_030_-45_0_EVN.mrc MotionCorr/job002/frames/TS_03_030_-45_0_ODD.mrc MotionCorr/job002/frames/TS_03_030_-45_0.mrc MotionCorr/job002/frames/TS_03_030_-45_0.star     4.361125     0.000000     4.361125 CtfFind/job003/frames/TS_03_030_-45_0_PS.ctf:mrc 13954.552989 14845.882852   521.800781   138.009931     0.079347    10.094332     0.768970     -0.14441    -45.08913    85.243593    26.310783    -23.16948     0.625828 
frames/TS_03_027_-42.0.mrc            8    -41.99940    85.000000    81.000000     -1.50000 MotionCorr/job002/frames/TS_03_027_-42_0_PS.mrc MotionCorr/job002/frames/TS_03_027_-42_0_EVN.mrc MotionCorr/job002/frames/TS_03_027_-42_0_ODD.mrc MotionCorr/job002/frames/TS_03_027_-42_0.mrc MotionCorr/job002/frames/TS_03_027_-42_0.star     3.259830     0.000000     3.259830 CtfFind/job003/frames/TS_03_027_-42_0_PS.ctf:mrc 13550.934772 15001.950046   890.588867   142.928205     0.072639     9.685102     0.694580     -0.08238    -42.10947    85.214234    20.618976    -32.15534     0.689253 
frames/TS_03_026_-39.0.mrc            8    -38.99870    85.000000    78.000000     -1.50000 MotionCorr/job002/frames/TS_03_026_-39_0_PS.mrc MotionCorr/job002/frames/TS_03_026_-39_0_EVN.mrc MotionCorr/job002/frames/TS_03_026_-39_0_ODD.mrc MotionCorr/job002/frames/TS_03_026_-39_0.mrc MotionCorr/job002/frames/TS_03_026_-39_0.star     3.213115     0.000000     3.213115 CtfFind/job003/frames/TS_03_026_-39_0_PS.ctf:mrc 14076.705548 14988.829210   603.708984   152.203460     0.087992    10.696979     0.975220     -0.09286    -39.07671    85.234321    25.939964     -3.82563     0.724199 
frames/TS_03_023_-36.0.mrc            8    -35.99860    85.000000    69.000000     -1.50000 MotionCorr/job002/frames/TS_03_023_-36_0_PS.mrc MotionCorr/job002/frames/TS_03_023_-36_0_EVN.mrc MotionCorr/job002/frames/TS_03_023_-36_0_ODD.mrc MotionCorr/job002/frames/TS_03_023_-36_0.mrc MotionCorr/job002/frames/TS_03_023_-36_0.star     3.701328     0.000000     3.701328 CtfFind/job003/frames/TS_03_023_-36_0_PS.ctf:mrc 13754.894477 14512.235120   275.329102   145.726419     0.076480     9.954133     0.493570     -0.07726    -36.07959    85.221892    17.633271    -13.24618     0.754544 
frames/TS_03_022_-33.0.mrc            8    -32.99900    85.000000    66.000000     -1.50000 MotionCorr/job002/frames/TS_03_022_-33_0_PS.mrc MotionCorr/job002/frames/TS_03_022_-33_0_EVN.mrc MotionCorr/job002/frames/TS_03_022_-33_0_ODD.mrc MotionCorr/job002/frames/TS_03_022_-33_0.mrc MotionCorr/job002/frames/TS_03_022_-33_0.star     3.010083     0.000000     3.010083 CtfFind/job003/frames/TS_03_022_-33_0_PS.ctf:mrc 13846.737317 14988.982975   693.416016   140.177722     0.085505     9.188430     0.757130     -0.07546    -33.04034    85.212495    21.015984    14.959092     0.818025 
frames/TS_03_019_-30.0.mrc            8    -29.99930    85.000000    57.000000     -1.50000 MotionCorr/job002/frames/TS_03_019_-30_0_PS.mrc MotionCorr/job002/frames/TS_03_019_-30_0_EVN.mrc MotionCorr/job002/frames/TS_03_019_-30_0_ODD.mrc MotionCorr/job002/frames/TS_03_019_-30_0.mrc MotionCorr/job002/frames/TS_03_019_-30_0.star     2.650273     0.000000     2.650273 CtfFind/job003/frames/TS_03_019_-30_0_PS.ctf:mrc 13732.010715 14866.887358   515.045898   145.452763     0.079407     8.848118     0.717920     -0.07923    -30.04143    85.239950    12.248589     4.242367     0.868495 
frames/TS_03_018_-27.0.mrc            8    -26.99870    85.000000    54.000000     -1.50000 MotionCorr/job002/frames/TS_03_018_-27_0_PS.mrc MotionCorr/job002/frames/TS_03_018_-27_0_EVN.mrc MotionCorr/job002/frames/TS_03_018_-27_0_ODD.mrc MotionCorr/job002/frames/TS_03_018_-27_0.mrc MotionCorr/job002/frames/TS_03_018_-27_0.star     2.942248     0.000000     2.942248 CtfFind/job003/frames/TS_03_018_-27_0_PS.ctf:mrc 13702.987707 14909.808243   774.749023   158.195235     0.072302     8.532114     0.897310     -0.03434    -27.03390    85.229388    17.254979    34.663236     0.880077 
frames/TS_03_015_-24.0.mrc            8    -23.99860    85.000000    45.000000     -1.50000 MotionCorr/job002/frames/TS_03_015_-24_0_PS.mrc MotionCorr/job002/frames/TS_03_015_-24_0_EVN.mrc MotionCorr/job002/frames/TS_03_015_-24_0_ODD.mrc MotionCorr/job002/frames/TS_03_015_-24_0.mrc MotionCorr/job002/frames/TS_03_015_-24_0.star     2.726784     0.000000     2.726784 CtfFind/job003/frames/TS_03_015_-24_0_PS.ctf:mrc 13755.697705 14786.453510   554.796875   143.381949     0.081781     7.026447     0.592440     -0.01675    -24.03940    85.223963    10.145909    22.108688     1.030576 
frames/TS_03_014_-21.0.mrc            8    -20.99890    85.000000    42.000000     -1.50000 MotionCorr/job002/frames/TS_03_014_-21_0_PS.mrc MotionCorr/job002/frames/TS_03_014_-21_0_EVN.mrc MotionCorr/job002/frames/TS_03_014_-21_0_ODD.mrc MotionCorr/job002/frames/TS_03_014_-21_0.mrc MotionCorr/job002/frames/TS_03_014_-21_0.star     2.414818     0.000000     2.414818 CtfFind/job003/frames/TS_03_014_-21_0_PS.ctf:mrc 14182.274811 14757.170606   566.877930   147.645721     0.080299     6.286821     0.662610     0.012342    -21.03700    85.224780    18.893855    52.505414     1.118372 
frames/TS_03_011_-18.0.mrc            8    -17.99880    85.000000    33.000000     -1.50000 MotionCorr/job002/frames/TS_03_011_-18_0_PS.mrc MotionCorr/job002/frames/TS_03_011_-18_0_EVN.mrc MotionCorr/job002/frames/TS_03_011_-18_0_ODD.mrc MotionCorr/job002/frames/TS_03_011_-18_0.mrc MotionCorr/job002/frames/TS_03_011_-18_0.star     2.602850     0.000000     2.602850 CtfFind/job003/frames/TS_03_011_-18_0_PS.ctf:mrc 14223.627158 14953.221488   726.788086   146.371062     0.079273     7.026447     0.824200     -0.00448    -18.04898    85.232868    14.177185    36.311778     1.158479 
frames/TS_03_010_-15.0.mrc            8    -14.99920    85.000000    30.000000     -1.50000 MotionCorr/job002/frames/TS_03_010_-15_0_PS.mrc MotionCorr/job002/frames/TS_03_010_-15_0_EVN.mrc MotionCorr/job002/frames/TS_03_010_-15_0_ODD.mrc MotionCorr/job002/frames/TS_03_010_-15_0.mrc MotionCorr/job002/frames/TS_03_010_-15_0.star     3.136864     0.000000     3.136864 CtfFind/job003/frames/TS_03_010_-15_0_PS.ctf:mrc 14309.596016 14753.456870   394.884766   139.495245     0.089302     6.022669     0.844510     0.010264    -15.01797    85.236521    19.316117    62.342868     1.191866 
frames/TS_03_007_-12.0.mrc            8    -11.99800    85.000000    21.000000     -1.50000 MotionCorr/job002/frames/TS_03_007_-12_0_PS.mrc MotionCorr/job002/frames/TS_03_007_-12_0_EVN.mrc MotionCorr/job002/frames/TS_03_007_-12_0_ODD.mrc MotionCorr/job002/frames/TS_03_007_-12_0.mrc MotionCorr/job002/frames/TS_03_007_-12_0.star     2.313651     0.000000     2.313651 CtfFind/job003/frames/TS_03_007_-12_0_PS.ctf:mrc 14257.132059 14811.625486   359.812500   143.503613     0.078866     5.733581     0.805790     -0.01474    -12.02395    85.245388    14.631126    53.079171     1.307079 
frames/TS_03_006_-9.0.mrc            8     -8.99890    85.000000    18.000000     -1.50000 MotionCorr/job002/frames/TS_03_006_-9_0_PS.mrc MotionCorr/job002/frames/TS_03_006_-9_0_EVN.mrc MotionCorr/job002/frames/TS_03_006_-9_0_ODD.mrc MotionCorr/job002/frames/TS_03_006_-9_0.mrc MotionCorr/job002/frames/TS_03_006_-9_0.star     2.740379     0.000000     2.740379 CtfFind/job003/frames/TS_03_006_-9_0_PS.ctf:mrc 14326.988264 14868.524872   464.789062   143.902749     0.076235     5.429527     0.739670     -0.02748     -9.01232    85.250235    18.380358    49.537891     1.367675 
frames/TS_03_003_-6.0.mrc            8     -5.99827    85.000000     9.000000     -1.50000 MotionCorr/job002/frames/TS_03_003_-6_0_PS.mrc MotionCorr/job002/frames/TS_03_003_-6_0_EVN.mrc MotionCorr/job002/frames/TS_03_003_-6_0_ODD.mrc MotionCorr/job002/frames/TS_03_003_-6_0.mrc MotionCorr/job002/frames/TS_03_003_-6_0.star     2.179822     0.000000     2.179822 CtfFind/job003/frames/TS_03_003_-6_0_PS.ctf:mrc 14386.634910 14843.681439   423.504883   145.145673     0.061769     5.193461     0.531500     -0.04372     -6.02162    85.258640    14.047573    53.370906     1.443850 
frames/TS_03_002_-3.0.mrc            8     -2.99863    85.000000     6.000000     -1.50000 MotionCorr/job002/frames/TS_03_002_-3_0_PS.mrc MotionCorr/job002/frames/TS_03_002_-3_0_EVN.mrc MotionCorr/job002/frames/TS_03_002_-3_0_ODD.mrc MotionCorr/job002/frames/TS_03_002_-3_0.mrc MotionCorr/job002/frames/TS_03_002_-3_0.star     1.817747     0.000000     1.817747 CtfFind/job003/frames/TS_03_002_-3_0_PS.ctf:mrc 14310.769604 14847.583409   554.088867   148.101949     0.066306     4.977066     0.697890     -0.04980     -3.02672    85.261002    14.282083    36.659368     1.404760 
frames/TS_03_000_0.0.mrc            8     0.001500    85.000000     0.000000     -1.50000 MotionCorr/job002/frames/TS_03_000_0_0_PS.mrc MotionCorr/job002/frames/TS_03_000_0_0_EVN.mrc MotionCorr/job002/frames/TS_03_000_0_0_ODD.mrc MotionCorr/job002/frames/TS_03_000_0_0.mrc MotionCorr/job002/frames/TS_03_000_0_0.star     4.072953     2.389154     1.683799 CtfFind/job003/frames/TS_03_000_0_0_PS.ctf:mrc 14423.328623 14937.528357   655.861328   153.056713     0.061578     4.875494     0.773580     -0.08741     -0.02502    85.269543    15.908156    50.735463     1.451854 
frames/TS_03_001_3.0.mrc            8     3.001130    85.000000     3.000000     -1.50000 MotionCorr/job002/frames/TS_03_001_3_0_PS.mrc MotionCorr/job002/frames/TS_03_001_3_0_EVN.mrc MotionCorr/job002/frames/TS_03_001_3_0_ODD.mrc MotionCorr/job002/frames/TS_03_001_3_0.mrc MotionCorr/job002/frames/TS_03_001_3_0.star     2.934302     0.000000     2.934302 CtfFind/job003/frames/TS_03_001_3_0_PS.ctf:mrc 14433.038088 14863.416995   414.947266   141.891221     0.074139     5.733581     0.409340     -0.06961     2.984142    85.276653    16.703707    68.848825     1.429016 
frames/TS_03_004_6.0.mrc            8     6.000760    85.000000    12.000000     -1.50000 MotionCorr/job002/frames/TS_03_004_6_0_PS.mrc MotionCorr/job002/frames/TS_03_004_6_0_EVN.mrc MotionCorr/job002/frames/TS_03_004_6_0_ODD.mrc MotionCorr/job002/frames/TS_03_004_6_0.mrc MotionCorr/job002/frames/TS_03_004_6_0.star     2.497861     0.000000     2.497861 CtfFind/job003/frames/TS_03_004_6_0_PS.ctf:mrc 14384.974518 14744.837387   293.609375   142.160175     0.075577     5.429527     0.752080     -0.02475     6.023755    85.277966    12.826074    44.908011     1.376942 
frames/TS_03_005_9.0.mrc            8     9.001400    85.000000    15.000000     -1.50000 MotionCorr/job002/frames/TS_03_005_9_0_PS.mrc MotionCorr/job002/frames/TS_03_005_9_0_EVN.mrc MotionCorr/job002/frames/TS_03_005_9_0_ODD.mrc MotionCorr/job002/frames/TS_03_005_9_0.mrc MotionCorr/job002/frames/TS_03_005_9_0.star     1.609453     0.000000     1.609453 CtfFind/job003/frames/TS_03_005_9_0_PS.ctf:mrc 14347.571203 14807.356768   381.895508   146.917147     0.066536     6.456735     0.729540     0.013725     9.039675    85.286550     8.257484    56.607593     1.315837 
frames/TS_03_008_12.0.mrc            8    12.000500    85.000000    24.000000     -1.50000 MotionCorr/job002/frames/TS_03_008_12_0_PS.mrc MotionCorr/job002/frames/TS_03_008_12_0_EVN.mrc MotionCorr/job002/frames/TS_03_008_12_0_ODD.mrc MotionCorr/job002/frames/TS_03_008_12_0.mrc MotionCorr/job002/frames/TS_03_008_12_0.star     3.120055     0.000000     3.120055 CtfFind/job003/frames/TS_03_008_12_0_PS.ctf:mrc 14369.759317 14826.010854   497.391602   137.547196     0.086996     6.232153     0.920330     0.013653    12.056214    85.291658     7.835727    31.929117     1.237121 
frames/TS_03_009_15.0.mrc            8    15.000700    85.000000    27.000000     -1.50000 MotionCorr/job002/frames/TS_03_009_15_0_PS.mrc MotionCorr/job002/frames/TS_03_009_15_0_EVN.mrc MotionCorr/job002/frames/TS_03_009_15_0_ODD.mrc MotionCorr/job002/frames/TS_03_009_15_0.mrc MotionCorr/job002/frames/TS_03_009_15_0.star     2.301584     0.000000     2.301584 CtfFind/job003/frames/TS_03_009_15_0_PS.ctf:mrc 14479.493529 14834.790638   196.554688   149.152742     0.071106     6.575207     0.769530     0.046807    15.045618    85.303780    10.477500    42.918587     1.205233 
frames/TS_03_012_18.0.mrc            8    18.000300    85.000000    36.000000     -1.50000 MotionCorr/job002/frames/TS_03_012_18_0_PS.mrc MotionCorr/job002/frames/TS_03_012_18_0_EVN.mrc MotionCorr/job002/frames/TS_03_012_18_0_ODD.mrc MotionCorr/job002/frames/TS_03_012_18_0.mrc MotionCorr/job002/frames/TS_03_012_18_0.star     2.646684     0.000000     2.646684 CtfFind/job003/frames/TS_03_012_18_0_PS.ctf:mrc 14359.473606 14813.168279   275.634766   142.753109     0.059765     6.761298     0.713570     0.062651    18.057640    85.314052     5.959513    23.915924     1.149164 
frames/TS_03_013_21.0.mrc            8    21.000900    85.000000    39.000000     -1.50000 MotionCorr/job002/frames/TS_03_013_21_0_PS.mrc MotionCorr/job002/frames/TS_03_013_21_0_EVN.mrc MotionCorr/job002/frames/TS_03_013_21_0_ODD.mrc MotionCorr/job002/frames/TS_03_013_21_0.mrc MotionCorr/job002/frames/TS_03_013_21_0.star     2.705364     0.000000     2.705364 CtfFind/job003/frames/TS_03_013_21_0_PS.ctf:mrc 14558.195158 14842.049799   179.557617   158.116585     0.066225     7.166976     0.886440     0.077729    21.041057    85.326617     7.517553    31.441516     1.064025 
frames/TS_03_016_24.0.mrc            8    24.000600    85.000000    48.000000     -1.50000 MotionCorr/job002/frames/TS_03_016_24_0_PS.mrc MotionCorr/job002/frames/TS_03_016_24_0_EVN.mrc MotionCorr/job002/frames/TS_03_016_24_0_ODD.mrc MotionCorr/job002/frames/TS_03_016_24_0.mrc MotionCorr/job002/frames/TS_03_016_24_0.star     2.614310     0.000000     2.614310 CtfFind/job003/frames/TS_03_016_24_0_PS.ctf:mrc 14381.597204 14937.126233   355.435547   157.198151     0.070183     7.963306     0.569710     0.080517    24.065760    85.334762     5.132549    27.891800     0.985969 
frames/TS_03_017_27.0.mrc            8    27.000700    85.000000    51.000000     -1.50000 MotionCorr/job002/frames/TS_03_017_27_0_PS.mrc MotionCorr/job002/frames/TS_03_017_27_0_EVN.mrc MotionCorr/job002/frames/TS_03_017_27_0_ODD.mrc MotionCorr/job002/frames/TS_03_017_27_0.mrc MotionCorr/job002/frames/TS_03_017_27_0.star     3.655325     0.000000     3.655325 CtfFind/job003/frames/TS_03_017_27_0_PS.ctf:mrc 14298.612574 14795.074596   483.606445   124.161824     0.065192     8.740214     1.192420     0.123895    27.037358    85.349151    10.697731    46.728902     0.908213 
frames/TS_03_020_30.0.mrc            8    30.000800    85.000000    60.000000     -1.50000 MotionCorr/job002/frames/TS_03_020_30_0_PS.mrc MotionCorr/job002/frames/TS_03_020_30_0_EVN.mrc MotionCorr/job002/frames/TS_03_020_30_0_ODD.mrc MotionCorr/job002/frames/TS_03_020_30_0.mrc MotionCorr/job002/frames/TS_03_020_30_0.star     2.856914     0.000000     2.856914 CtfFind/job003/frames/TS_03_020_30_0_PS.ctf:mrc 14498.655735 15003.757836   441.144531   132.568729     0.070988     8.532114     0.472590     0.113002    30.055124    85.375083     -3.72883    42.012111     0.892499 
frames/TS_03_021_33.0.mrc            8    33.001000    85.000000    63.000000     -1.50000 MotionCorr/job002/frames/TS_03_021_33_0_PS.mrc MotionCorr/job002/frames/TS_03_021_33_0_EVN.mrc MotionCorr/job002/frames/TS_03_021_33_0_ODD.mrc MotionCorr/job002/frames/TS_03_021_33_0.mrc MotionCorr/job002/frames/TS_03_021_33_0.star     3.391973     0.000000     3.391973 CtfFind/job003/frames/TS_03_021_33_0_PS.ctf:mrc 14413.050312 14782.109010 9.770000e-04   107.804199     0.070425     9.954133     0.465080     0.103426    33.069538    85.377004    12.128250    74.277682     0.804316 
frames/TS_03_024_36.0.mrc            8    36.000600    85.000000    72.000000     -1.50000 MotionCorr/job002/frames/TS_03_024_36_0_PS.mrc MotionCorr/job002/frames/TS_03_024_36_0_EVN.mrc MotionCorr/job002/frames/TS_03_024_36_0_ODD.mrc MotionCorr/job002/frames/TS_03_024_36_0.mrc MotionCorr/job002/frames/TS_03_024_36_0.star     3.601807     0.000000     3.601807 CtfFind/job003/frames/TS_03_024_36_0_PS.ctf:mrc 14787.718061 15201.880296   218.249023   162.570151     0.090294     8.848118     1.260370     0.171286    36.017328    85.392920     4.974423    72.035814     0.763857 
frames/TS_03_025_39.0.mrc            8    39.000700    85.000000    75.000000     -1.50000 MotionCorr/job002/frames/TS_03_025_39_0_PS.mrc MotionCorr/job002/frames/TS_03_025_39_0_EVN.mrc MotionCorr/job002/frames/TS_03_025_39_0_ODD.mrc MotionCorr/job002/frames/TS_03_025_39_0.mrc MotionCorr/job002/frames/TS_03_025_39_0.star     2.430764     0.000000     2.430764 CtfFind/job003/frames/TS_03_025_39_0_PS.ctf:mrc 14594.349800 14666.228929   131.612305   163.000735     0.093119    11.026116     0.573320     0.141165    39.029349    85.414862    16.600549   104.334664     0.725345 
frames/TS_03_028_42.0.mrc            8    42.000900    85.000000    84.000000     -1.50000 MotionCorr/job002/frames/TS_03_028_42_0_PS.mrc MotionCorr/job002/frames/TS_03_028_42_0_EVN.mrc MotionCorr/job002/frames/TS_03_028_42_0_ODD.mrc MotionCorr/job002/frames/TS_03_028_42_0.mrc MotionCorr/job002/frames/TS_03_028_42_0.star     4.460118     0.000000     4.460118 CtfFind/job003/frames/TS_03_028_42_0_PS.ctf:mrc 14088.991037 14554.184722   210.600586   177.756303     0.087854    10.859054     0.604700     0.100832    42.046314    85.435014     -0.83336    96.434804     0.732923 
frames/TS_03_029_45.0.mrc            8    45.000500    85.000000    87.000000     -1.50000 MotionCorr/job002/frames/TS_03_029_45_0_PS.mrc MotionCorr/job002/frames/TS_03_029_45_0_EVN.mrc MotionCorr/job002/frames/TS_03_029_45_0_ODD.mrc MotionCorr/job002/frames/TS_03_029_45_0.mrc MotionCorr/job002/frames/TS_03_029_45_0.star     4.061861     0.000000     4.061861 CtfFind/job003/frames/TS_03_029_45_0_PS.ctf:mrc 14710.030802 15378.527828   159.059570   154.179179     0.144842    11.559638     0.594350     0.114290    45.040983    85.429898    17.258057   125.659688     0.593597 
frames/TS_03_032_48.0.mrc            8    47.999600    85.000000    96.000000     -1.50000 MotionCorr/job002/frames/TS_03_032_48_0_PS.mrc MotionCorr/job002/frames/TS_03_032_48_0_EVN.mrc MotionCorr/job002/frames/TS_03_032_48_0_ODD.mrc MotionCorr/job002/frames/TS_03_032_48_0.mrc MotionCorr/job002/frames/TS_03_032_48_0.star     3.930790     0.000000     3.930790 CtfFind/job003/frames/TS_03_032_48_0_PS.ctf:mrc 15127.902773 15168.485463   159.303711   178.255849     0.087733    10.094332     0.806360     0.138565    47.971595    85.490068     -2.04876   116.125296     0.544253 
frames/TS_03_033_51.0.mrc            8    50.999800    85.000000    99.000000     -1.50000 MotionCorr/job002/frames/TS_03_033_51_0_PS.mrc MotionCorr/job002/frames/TS_03_033_51_0_EVN.mrc MotionCorr/job002/frames/TS_03_033_51_0_ODD.mrc MotionCorr/job002/frames/TS_03_033_51_0.mrc MotionCorr/job002/frames/TS_03_033_51_0.star     3.402876     0.000000     3.402876 CtfFind/job003/frames/TS_03_033_51_0_PS.ctf:mrc 14537.312329 14670.146747    48.349609   139.422898     0.104601    25.000000     1.082720     0.164467    51.021673    85.512936    12.804860   145.451933     0.535712 
frames/TS_03_036_54.0.mrc            8    53.996900    85.000000   108.000000     -1.50000 MotionCorr/job002/frames/TS_03_036_54_0_PS.mrc MotionCorr/job002/frames/TS_03_036_54_0_EVN.mrc MotionCorr/job002/frames/TS_03_036_54_0_ODD.mrc MotionCorr/job002/frames/TS_03_036_54_0.mrc MotionCorr/job002/frames/TS_03_036_54_0.star     3.360161     0.000000     3.360161 CtfFind/job003/frames/TS_03_036_54_0_PS.ctf:mrc 14769.307965 14991.015385   104.427734   134.690416     0.133267    25.000000     0.507790     0.165202    54.010768    85.536207     -7.41179   139.202358     0.500097 
frames/TS_03_037_57.0.mrc            8    56.996000    85.000000   111.000000     -1.50000 MotionCorr/job002/frames/TS_03_037_57_0_PS.mrc MotionCorr/job002/frames/TS_03_037_57_0_EVN.mrc MotionCorr/job002/frames/TS_03_037_57_0_ODD.mrc MotionCorr/job002/frames/TS_03_037_57_0.mrc MotionCorr/job002/frames/TS_03_037_57_0.star     3.062455     0.000000     3.062455 CtfFind/job003/frames/TS_03_037_57_0_PS.ctf:mrc 14159.727691 14653.491888   208.624023   143.267276     0.111687     8.532114     0.553800     0.155397    56.966570    85.565670    12.907731   175.064141     0.414527 
frames/TS_03_040_60.0.mrc            8    59.998100    85.000000   120.000000     -1.50000 MotionCorr/job002/frames/TS_03_040_60_0_PS.mrc MotionCorr/job002/frames/TS_03_040_60_0_EVN.mrc MotionCorr/job002/frames/TS_03_040_60_0_ODD.mrc MotionCorr/job002/frames/TS_03_040_60_0.mrc MotionCorr/job002/frames/TS_03_040_60_0.star     4.056148     0.000000     4.056148 CtfFind/job003/frames/TS_03_040_60_0_PS.ctf:mrc 14731.739866 15002.276645    85.911133   133.905278     0.145422    25.000000     0.496110     0.183166    59.974535    85.607680     -5.61670   159.934147     0.405286 
 
