
# version 50001

data_TS_45

loop_ 
_rlnMicrographMovieName #1 
_rlnTomoTiltMovieFrameCount #2 
_rlnTomoNominalStageTiltAngle #3 
_rlnTomoNominalTiltAxisAngle #4 
_rlnMicrographPreExposure #5 
_rlnTomoNominalDefocus #6 
_rlnCtfPowerSpectrum #7 
_rlnMicrographNameEven #8 
_rlnMicrographNameOdd #9 
_rlnMicrographName #10 
_rlnMicrographMetadata #11 
_rlnAccumMotionTotal #12 
_rlnAccumMotionEarly #13 
_rlnAccumMotionLate #14 
_rlnCtfImage #15 
_rlnDefocusU #16 
_rlnDefocusV #17 
_rlnCtfAstigmatism #18 
_rlnDefocusAngle #19 
_rlnCtfFigureOfMerit #20 
_rlnCtfMaxResolution #21 
_rlnCtfIceRingDensity #22 
_rlnTomoXTilt #23 
_rlnTomoYTilt #24 
_rlnTomoZRot #25 
_rlnTomoXShiftAngst #26 
_rlnTomoYShiftAngst #27 
_rlnCtfScalefactor #28 
frames/TS_45_039_-60.0.mrc           10    -59.99910    85.000000   117.000000     -3.00000 MotionCorr/job002/frames/TS_45_039_-60_0_PS.mrc MotionCorr/job002/frames/TS_45_039_-60_0_EVN.mrc MotionCorr/job002/frames/TS_45_039_-60_0_ODD.mrc MotionCorr/job002/frames/TS_45_039_-60_0.mrc MotionCorr/job002/frames/TS_45_039_-60_0.star     8.592580     0.000000     8.592580 CtfFind/job003/frames/TS_45_039_-60_0_PS.ctf:mrc 30225.752951 30434.029254    56.453125   139.232843     0.139703    14.931199     0.689400     -0.01203    -60.01455    85.031034    10.799671   162.034931     0.449808 
frames/TS_45_038_-57.0.mrc           10    -56.99900    85.000000   114.000000     -3.00000 MotionCorr/job002/frames/TS_45_038_-57_0_PS.mrc MotionCorr/job002/frames/TS_45_038_-57_0_EVN.mrc MotionCorr/job002/frames/TS_45_038_-57_0_ODD.mrc MotionCorr/job002/frames/TS_45_038_-57_0.mrc MotionCorr/job002/frames/TS_45_038_-57_0.star     7.885448     0.000000     7.885448 CtfFind/job003/frames/TS_45_038_-57_0_PS.ctf:mrc 30334.282228 30606.919640    12.480469   158.817639     0.153567    16.288582     0.521070     0.020584    -57.01593    85.031164    24.812546   151.967563     0.483243 
frames/TS_45_035_-54.0.mrc           10    -53.99990    85.000000   105.000000     -3.00000 MotionCorr/job002/frames/TS_45_035_-54_0_PS.mrc MotionCorr/job002/frames/TS_45_035_-54_0_EVN.mrc MotionCorr/job002/frames/TS_45_035_-54_0_ODD.mrc MotionCorr/job002/frames/TS_45_035_-54_0.mrc MotionCorr/job002/frames/TS_45_035_-54_0.star     6.229998     0.000000     6.229998 CtfFind/job003/frames/TS_45_035_-54_0_PS.ctf:mrc 31029.504962 31164.502154    76.355469   174.187784     0.112120    11.749141     0.622660 -9.06284e-04    -54.02055    85.055064    20.463192   149.499738     0.515936 
frames/TS_45_034_-51.0.mrc           10    -50.99930    85.000000   102.000000     -3.00000 MotionCorr/job002/frames/TS_45_034_-51_0_PS.mrc MotionCorr/job002/frames/TS_45_034_-51_0_EVN.mrc MotionCorr/job002/frames/TS_45_034_-51_0_ODD.mrc MotionCorr/job002/frames/TS_45_034_-51_0.mrc MotionCorr/job002/frames/TS_45_034_-51_0.star     6.296544     0.000000     6.296544 CtfFind/job003/frames/TS_45_034_-51_0_PS.ctf:mrc 31308.372680 31643.192682   129.976562   150.582208     0.121843     9.685102     0.793180     -0.01788    -51.01390    85.073672    40.973160   148.801866     0.559907 
frames/TS_45_031_-48.0.mrc           10    -47.99960    85.000000    93.000000     -3.00000 MotionCorr/job002/frames/TS_45_031_-48_0_PS.mrc MotionCorr/job002/frames/TS_45_031_-48_0_EVN.mrc MotionCorr/job002/frames/TS_45_031_-48_0_ODD.mrc MotionCorr/job002/frames/TS_45_031_-48_0.mrc MotionCorr/job002/frames/TS_45_031_-48_0.star     5.234620     0.000000     5.234620 CtfFind/job003/frames/TS_45_031_-48_0_PS.ctf:mrc 31497.833142 32097.963099   119.203125   141.791365     0.097664     9.954133     0.549880     -0.00166    -48.01483    85.074095    22.308951   137.333913     0.649298 
frames/TS_45_030_-45.0.mrc           10    -45.00000    85.000000    90.000000     -3.00000 MotionCorr/job002/frames/TS_45_030_-45_0_PS.mrc MotionCorr/job002/frames/TS_45_030_-45_0_EVN.mrc MotionCorr/job002/frames/TS_45_030_-45_0_ODD.mrc MotionCorr/job002/frames/TS_45_030_-45_0.mrc MotionCorr/job002/frames/TS_45_030_-45_0.star     5.459822     0.000000     5.459822 CtfFind/job003/frames/TS_45_030_-45_0_PS.ctf:mrc 30536.025923 30857.439595   261.048828   121.935014     0.092576    10.238537     0.809930     -0.01964    -45.01616    85.089818    34.311199   132.441702     0.654626 
frames/TS_45_027_-42.0.mrc           10    -41.99990    85.000000    81.000000     -3.00000 MotionCorr/job002/frames/TS_45_027_-42_0_PS.mrc MotionCorr/job002/frames/TS_45_027_-42_0_EVN.mrc MotionCorr/job002/frames/TS_45_027_-42_0_ODD.mrc MotionCorr/job002/frames/TS_45_027_-42_0.mrc MotionCorr/job002/frames/TS_45_027_-42_0.star     4.854730     0.000000     4.854730 CtfFind/job003/frames/TS_45_027_-42_0_PS.ctf:mrc 30654.106974 31157.178657   459.546875   132.319173     0.093988     9.685102     0.443340     0.018539    -42.00895    85.075776    19.420503   130.797355     0.699786 
frames/TS_45_026_-39.0.mrc           10    -38.99970    85.000000    78.000000     -3.00000 MotionCorr/job002/frames/TS_45_026_-39_0_PS.mrc MotionCorr/job002/frames/TS_45_026_-39_0_EVN.mrc MotionCorr/job002/frames/TS_45_026_-39_0_ODD.mrc MotionCorr/job002/frames/TS_45_026_-39_0.mrc MotionCorr/job002/frames/TS_45_026_-39_0.star     5.409872     0.000000     5.409872 CtfFind/job003/frames/TS_45_026_-39_0_PS.ctf:mrc 30373.517286 30834.068272   120.957031   141.014531     0.087948     9.954133     0.472020     0.007440    -39.00552    85.088435    23.682103   121.362101     0.689579 
frames/TS_45_023_-36.0.mrc           10    -35.99960    85.000000    69.000000     -3.00000 MotionCorr/job002/frames/TS_45_023_-36_0_PS.mrc MotionCorr/job002/frames/TS_45_023_-36_0_EVN.mrc MotionCorr/job002/frames/TS_45_023_-36_0_ODD.mrc MotionCorr/job002/frames/TS_45_023_-36_0.mrc MotionCorr/job002/frames/TS_45_023_-36_0.star     4.774667     0.000000     4.774667 CtfFind/job003/frames/TS_45_023_-36_0_PS.ctf:mrc 30528.889881 31069.518490   257.210938   141.860936     0.089998     8.431736     0.687840     0.019370    -35.99896    85.088258    12.517490   122.301311     0.744191 
frames/TS_45_022_-33.0.mrc           10    -32.99950    85.000000    66.000000     -3.00000 MotionCorr/job002/frames/TS_45_022_-33_0_PS.mrc MotionCorr/job002/frames/TS_45_022_-33_0_EVN.mrc MotionCorr/job002/frames/TS_45_022_-33_0_ODD.mrc MotionCorr/job002/frames/TS_45_022_-33_0.mrc MotionCorr/job002/frames/TS_45_022_-33_0.star     5.137040     0.000000     5.137040 CtfFind/job003/frames/TS_45_022_-33_0_PS.ctf:mrc 30448.599017 30737.621842   276.111328   124.300484     0.089506     9.685102     0.575870     0.018306    -33.00071    85.093568    11.530425   115.021279     0.893549 
frames/TS_45_019_-30.0.mrc           10    -29.99980    85.000000    57.000000     -3.00000 MotionCorr/job002/frames/TS_45_019_-30_0_PS.mrc MotionCorr/job002/frames/TS_45_019_-30_0_EVN.mrc MotionCorr/job002/frames/TS_45_019_-30_0_ODD.mrc MotionCorr/job002/frames/TS_45_019_-30_0.mrc MotionCorr/job002/frames/TS_45_019_-30_0.star     4.675718     0.000000     4.675718 CtfFind/job003/frames/TS_45_019_-30_0_PS.ctf:mrc 29964.379559 30964.627194   489.705078   157.770699     0.064687     7.963306     0.592660     0.010752    -29.98895    85.104377     3.000072   116.873428     0.889953 
frames/TS_45_018_-27.0.mrc           10    -27.00020    85.000000    54.000000     -3.00000 MotionCorr/job002/frames/TS_45_018_-27_0_PS.mrc MotionCorr/job002/frames/TS_45_018_-27_0_EVN.mrc MotionCorr/job002/frames/TS_45_018_-27_0_ODD.mrc MotionCorr/job002/frames/TS_45_018_-27_0.mrc MotionCorr/job002/frames/TS_45_018_-27_0.star     4.807011     0.000000     4.807011 CtfFind/job003/frames/TS_45_018_-27_0_PS.ctf:mrc 30301.181287 30620.725167   195.957031    92.036661     0.075174     8.431736     0.363980     0.032377    -26.98911    85.100802     -2.15657   104.894688     1.003962 
frames/TS_45_015_-24.0.mrc           10    -24.00010    85.000000    45.000000     -3.00000 MotionCorr/job002/frames/TS_45_015_-24_0_PS.mrc MotionCorr/job002/frames/TS_45_015_-24_0_EVN.mrc MotionCorr/job002/frames/TS_45_015_-24_0_ODD.mrc MotionCorr/job002/frames/TS_45_015_-24_0.mrc MotionCorr/job002/frames/TS_45_015_-24_0.star     3.667000     0.000000     3.667000 CtfFind/job003/frames/TS_45_015_-24_0_PS.ctf:mrc 30158.780121 30721.719100   303.271484   151.049454     0.057985     8.237903     0.658290     0.030762    -23.98706    85.115611     -0.21575   117.297437     1.055994 
frames/TS_45_014_-21.0.mrc           10    -20.99990    85.000000    42.000000     -3.00000 MotionCorr/job002/frames/TS_45_014_-21_0_PS.mrc MotionCorr/job002/frames/TS_45_014_-21_0_EVN.mrc MotionCorr/job002/frames/TS_45_014_-21_0_ODD.mrc MotionCorr/job002/frames/TS_45_014_-21_0.mrc MotionCorr/job002/frames/TS_45_014_-21_0.star     3.955090     0.000000     3.955090 CtfFind/job003/frames/TS_45_014_-21_0_PS.ctf:mrc 30222.882404 30608.154697   208.822266   138.328407     0.083637     7.166976     0.532380     0.034939    -20.98952    85.117965     -4.42169    98.961277     1.160922 
frames/TS_45_011_-18.0.mrc           10    -18.00180    85.000000    33.000000     -3.00000 MotionCorr/job002/frames/TS_45_011_-18_0_PS.mrc MotionCorr/job002/frames/TS_45_011_-18_0_EVN.mrc MotionCorr/job002/frames/TS_45_011_-18_0_ODD.mrc MotionCorr/job002/frames/TS_45_011_-18_0.mrc MotionCorr/job002/frames/TS_45_011_-18_0.star     3.986319     0.000000     3.986319 CtfFind/job003/frames/TS_45_011_-18_0_PS.ctf:mrc 30185.718784 30576.099702   107.960938   139.448647     0.068736     6.636089     0.897040     0.046129    -17.99765    85.119922     0.791619   110.727593     1.186587 
frames/TS_45_010_-15.0.mrc           10    -15.00370    85.000000    30.000000     -3.00000 MotionCorr/job002/frames/TS_45_010_-15_0_PS.mrc MotionCorr/job002/frames/TS_45_010_-15_0_EVN.mrc MotionCorr/job002/frames/TS_45_010_-15_0_ODD.mrc MotionCorr/job002/frames/TS_45_010_-15_0.mrc MotionCorr/job002/frames/TS_45_010_-15_0.star     3.307242     0.000000     3.307242 CtfFind/job003/frames/TS_45_010_-15_0_PS.ctf:mrc 30183.459210 30638.712198   260.017578   134.908914     0.081297     6.399085     0.697650     0.057344    -15.02715    85.125551     -0.90367    89.010869     1.272218 
frames/TS_45_007_-12.0.mrc           10    -11.99900    85.000000    21.000000     -3.00000 MotionCorr/job002/frames/TS_45_007_-12_0_PS.mrc MotionCorr/job002/frames/TS_45_007_-12_0_EVN.mrc MotionCorr/job002/frames/TS_45_007_-12_0_ODD.mrc MotionCorr/job002/frames/TS_45_007_-12_0.mrc MotionCorr/job002/frames/TS_45_007_-12_0.star     3.492253     0.000000     3.492253 CtfFind/job003/frames/TS_45_007_-12_0_PS.ctf:mrc 30156.994052 30523.504883   316.609375   134.921017     0.065772     6.286821     0.427230     0.033373    -12.01465    85.134021     3.607396   102.139136     1.323133 
frames/TS_45_006_-9.0.mrc           10     -8.99940    85.000000    18.000000     -3.00000 MotionCorr/job002/frames/TS_45_006_-9_0_PS.mrc MotionCorr/job002/frames/TS_45_006_-9_0_EVN.mrc MotionCorr/job002/frames/TS_45_006_-9_0_ODD.mrc MotionCorr/job002/frames/TS_45_006_-9_0.mrc MotionCorr/job002/frames/TS_45_006_-9_0.star     3.925788     0.000000     3.925788 CtfFind/job003/frames/TS_45_006_-9_0_PS.ctf:mrc 30207.059667 30462.686858    82.421875   121.481471     0.063995     5.643288     0.608890     0.027828     -9.02274    85.140903     0.622628    74.129589     1.266295 
frames/TS_45_003_-6.0.mrc           10     -6.00027    85.000000     9.000000     -3.00000 MotionCorr/job002/frames/TS_45_003_-6_0_PS.mrc MotionCorr/job002/frames/TS_45_003_-6_0_EVN.mrc MotionCorr/job002/frames/TS_45_003_-6_0_ODD.mrc MotionCorr/job002/frames/TS_45_003_-6_0.mrc MotionCorr/job002/frames/TS_45_003_-6_0.star     3.170520     0.000000     3.170520 CtfFind/job003/frames/TS_45_003_-6_0_PS.ctf:mrc 30041.559165 30500.909559   430.880859   125.924039     0.067746     5.513058     0.559750     0.031897     -6.02428    85.146265     1.762354    89.955591     1.298434 
frames/TS_45_002_-3.0.mrc           10     -3.00013    85.000000     6.000000     -3.00000 MotionCorr/job002/frames/TS_45_002_-3_0_PS.mrc MotionCorr/job002/frames/TS_45_002_-3_0_EVN.mrc MotionCorr/job002/frames/TS_45_002_-3_0_ODD.mrc MotionCorr/job002/frames/TS_45_002_-3_0.mrc MotionCorr/job002/frames/TS_45_002_-3_0.star     3.314824     0.000000     3.314824 CtfFind/job003/frames/TS_45_002_-3_0_PS.ctf:mrc 30064.162768 30486.129076   365.074219   131.261836     0.069776     6.399085     1.089520     0.035842     -3.00485    85.149729     2.735591    58.266078     1.284832 
frames/TS_45_000_-0.0.mrc           10     -0.00150    85.000000     0.000000     -3.00000 MotionCorr/job002/frames/TS_45_000_-0_0_PS.mrc MotionCorr/job002/frames/TS_45_000_-0_0_EVN.mrc MotionCorr/job002/frames/TS_45_000_-0_0_ODD.mrc MotionCorr/job002/frames/TS_45_000_-0_0.mrc MotionCorr/job002/frames/TS_45_000_-0_0.star     3.233639     1.442666     1.790974 CtfFind/job003/frames/TS_45_000_-0_0_PS.ctf:mrc 29947.537535 30660.922759   786.271484   136.629372     0.052775     6.456735     0.806020     0.021908     0.033959    85.157566     -5.89424     6.705923     1.344499 
frames/TS_45_001_3.0.mrc           10     2.999630    85.000000     3.000000     -3.00000 MotionCorr/job002/frames/TS_45_001_3_0_PS.mrc MotionCorr/job002/frames/TS_45_001_3_0_EVN.mrc MotionCorr/job002/frames/TS_45_001_3_0_ODD.mrc MotionCorr/job002/frames/TS_45_001_3_0.mrc MotionCorr/job002/frames/TS_45_001_3_0.star     3.240772     0.000000     3.240772 CtfFind/job003/frames/TS_45_001_3_0_PS.ctf:mrc 30038.245845 30526.856227   637.558594   141.388383     0.058736     5.733581     0.933930     0.019651     3.001181    85.160527     -4.53043    -47.26887     1.169831 
frames/TS_45_004_6.0.mrc           10     5.997770    85.000000    12.000000     -3.00000 MotionCorr/job002/frames/TS_45_004_6_0_PS.mrc MotionCorr/job002/frames/TS_45_004_6_0_EVN.mrc MotionCorr/job002/frames/TS_45_004_6_0_ODD.mrc MotionCorr/job002/frames/TS_45_004_6_0.mrc MotionCorr/job002/frames/TS_45_004_6_0.star     3.592058     0.000000     3.592058 CtfFind/job003/frames/TS_45_004_6_0_PS.ctf:mrc 29947.866419 30490.514341   532.402344   114.579393     0.076072     5.688076     0.565610     0.036014     6.031282    85.163993     -7.67184    -69.01261     1.198014 
frames/TS_45_005_9.0.mrc           10     8.996400    85.000000    15.000000     -3.00000 MotionCorr/job002/frames/TS_45_005_9_0_PS.mrc MotionCorr/job002/frames/TS_45_005_9_0_EVN.mrc MotionCorr/job002/frames/TS_45_005_9_0_ODD.mrc MotionCorr/job002/frames/TS_45_005_9_0.mrc MotionCorr/job002/frames/TS_45_005_9_0.star     2.902536     0.000000     2.902536 CtfFind/job003/frames/TS_45_005_9_0_PS.ctf:mrc 30143.679904 30466.412240   254.123047   131.379360     0.066596     6.178427     0.502750     0.031598     9.008375    85.173670     -9.04049    -69.42333     1.285919 
frames/TS_45_008_12.0.mrc           10    11.998500    85.000000    24.000000     -3.00000 MotionCorr/job002/frames/TS_45_008_12_0_PS.mrc MotionCorr/job002/frames/TS_45_008_12_0_EVN.mrc MotionCorr/job002/frames/TS_45_008_12_0_ODD.mrc MotionCorr/job002/frames/TS_45_008_12_0.mrc MotionCorr/job002/frames/TS_45_008_12_0.star     2.172041     0.000000     2.172041 CtfFind/job003/frames/TS_45_008_12_0_PS.ctf:mrc 30168.109756 30515.818264    75.744141   123.477692     0.081601     6.125620     0.853420     0.038379    12.011475    85.179112     -9.05811    -81.43268     1.283070 
frames/TS_45_009_15.0.mrc           10    14.999700    85.000000    27.000000     -3.00000 MotionCorr/job002/frames/TS_45_009_15_0_PS.mrc MotionCorr/job002/frames/TS_45_009_15_0_EVN.mrc MotionCorr/job002/frames/TS_45_009_15_0_ODD.mrc MotionCorr/job002/frames/TS_45_009_15_0.mrc MotionCorr/job002/frames/TS_45_009_15_0.star     2.457826     0.000000     2.457826 CtfFind/job003/frames/TS_45_009_15_0_PS.ctf:mrc 30078.028552 30639.483103   354.826172   133.947053     0.074173     5.156098     0.531900     0.020933    15.009354    85.188337     -7.13189    -85.57527     1.260674 
frames/TS_45_012_18.0.mrc           10    17.999800    85.000000    36.000000     -3.00000 MotionCorr/job002/frames/TS_45_012_18_0_PS.mrc MotionCorr/job002/frames/TS_45_012_18_0_EVN.mrc MotionCorr/job002/frames/TS_45_012_18_0_ODD.mrc MotionCorr/job002/frames/TS_45_012_18_0.mrc MotionCorr/job002/frames/TS_45_012_18_0.star     3.005063     0.000000     3.005063 CtfFind/job003/frames/TS_45_012_18_0_PS.ctf:mrc 30186.223636 30482.259888   265.964844   135.661379     0.072552     6.825691     0.830460     0.057978    17.993573    85.190141    -11.23569    -92.93039     1.114291 
frames/TS_45_013_21.0.mrc           10    20.999900    85.000000    39.000000     -3.00000 MotionCorr/job002/frames/TS_45_013_21_0_PS.mrc MotionCorr/job002/frames/TS_45_013_21_0_EVN.mrc MotionCorr/job002/frames/TS_45_013_21_0_ODD.mrc MotionCorr/job002/frames/TS_45_013_21_0.mrc MotionCorr/job002/frames/TS_45_013_21_0.star     2.604872     0.000000     2.604872 CtfFind/job003/frames/TS_45_013_21_0_PS.ctf:mrc 30171.962076 30414.205866   471.238281   131.248078     0.067512     6.761298     0.734180     0.043431    20.995845    85.202045    -11.44227   -107.53340     1.073473 
frames/TS_45_016_24.0.mrc           10    23.999600    85.000000    48.000000     -3.00000 MotionCorr/job002/frames/TS_45_016_24_0_PS.mrc MotionCorr/job002/frames/TS_45_016_24_0_EVN.mrc MotionCorr/job002/frames/TS_45_016_24_0_ODD.mrc MotionCorr/job002/frames/TS_45_016_24_0.mrc MotionCorr/job002/frames/TS_45_016_24_0.star     2.722364     0.000000     2.722364 CtfFind/job003/frames/TS_45_016_24_0_PS.ctf:mrc 30078.947636 30411.261105   430.949219   108.760179     0.085775     7.465600     0.442520     0.058022    23.978494    85.220015     -7.55475   -106.43245     1.051659 
frames/TS_45_017_27.0.mrc           10    26.999700    85.000000    51.000000     -3.00000 MotionCorr/job002/frames/TS_45_017_27_0_PS.mrc MotionCorr/job002/frames/TS_45_017_27_0_EVN.mrc MotionCorr/job002/frames/TS_45_017_27_0_ODD.mrc MotionCorr/job002/frames/TS_45_017_27_0.mrc MotionCorr/job002/frames/TS_45_017_27_0.star     2.314864     0.000000     2.314864 CtfFind/job003/frames/TS_45_017_27_0_PS.ctf:mrc 30002.356513 30477.259440   257.986328   137.215632     0.069649     7.313241     0.702630     0.028764    27.031366    85.229045     -8.95026   -120.53284     0.999803 
frames/TS_45_020_30.0.mrc           10    29.997800    85.000000    60.000000     -3.00000 MotionCorr/job002/frames/TS_45_020_30_0_PS.mrc MotionCorr/job002/frames/TS_45_020_30_0_EVN.mrc MotionCorr/job002/frames/TS_45_020_30_0_ODD.mrc MotionCorr/job002/frames/TS_45_020_30_0.mrc MotionCorr/job002/frames/TS_45_020_30_0.star     3.026604     0.000000     3.026604 CtfFind/job003/frames/TS_45_020_30_0_PS.ctf:mrc 29939.984848 30483.195459   224.128906   152.272853     0.054645     8.431736     0.980070     0.045070    29.997929    85.238036    -12.03320   -121.01645     0.811521 
frames/TS_45_021_33.0.mrc           10    32.998000    85.000000    63.000000     -3.00000 MotionCorr/job002/frames/TS_45_021_33_0_PS.mrc MotionCorr/job002/frames/TS_45_021_33_0_EVN.mrc MotionCorr/job002/frames/TS_45_021_33_0_ODD.mrc MotionCorr/job002/frames/TS_45_021_33_0.mrc MotionCorr/job002/frames/TS_45_021_33_0.star     3.399792     0.000000     3.399792 CtfFind/job003/frames/TS_45_021_33_0_PS.ctf:mrc 30050.243708 30218.510784    75.126953   137.191975     0.090675     7.790191     0.718600     0.051835    33.010993    85.242387     -9.91971   -132.69631     0.888750 
frames/TS_45_024_36.0.mrc           10    35.998100    85.000000    72.000000     -3.00000 MotionCorr/job002/frames/TS_45_024_36_0_PS.mrc MotionCorr/job002/frames/TS_45_024_36_0_EVN.mrc MotionCorr/job002/frames/TS_45_024_36_0_ODD.mrc MotionCorr/job002/frames/TS_45_024_36_0.mrc MotionCorr/job002/frames/TS_45_024_36_0.star     4.101934     0.000000     4.101934 CtfFind/job003/frames/TS_45_024_36_0_PS.ctf:mrc 30083.513105 30599.874046   347.212891   125.347991     0.091184     8.740214     0.584720     0.048130    36.023520    85.249467    -12.27455   -130.31300     0.885823 
frames/TS_45_025_39.0.mrc           10    38.996700    85.000000    75.000000     -3.00000 MotionCorr/job002/frames/TS_45_025_39_0_PS.mrc MotionCorr/job002/frames/TS_45_025_39_0_EVN.mrc MotionCorr/job002/frames/TS_45_025_39_0_ODD.mrc MotionCorr/job002/frames/TS_45_025_39_0.mrc MotionCorr/job002/frames/TS_45_025_39_0.star     4.374145     0.000000     4.374145 CtfFind/job003/frames/TS_45_025_39_0_PS.ctf:mrc 30216.245695 30752.678814   381.396484   146.494981     0.086312     9.817775     0.477290     0.082167    39.032935    85.280058     -0.11984   -135.62794     0.829530 
frames/TS_45_028_42.0.mrc           10    41.996900    85.000000    84.000000     -3.00000 MotionCorr/job002/frames/TS_45_028_42_0_PS.mrc MotionCorr/job002/frames/TS_45_028_42_0_EVN.mrc MotionCorr/job002/frames/TS_45_028_42_0_ODD.mrc MotionCorr/job002/frames/TS_45_028_42_0.mrc MotionCorr/job002/frames/TS_45_028_42_0.star     4.127412     0.000000     4.127412 CtfFind/job003/frames/TS_45_028_42_0_PS.ctf:mrc 30299.810267 30952.837116   242.345703   172.553972     0.100596    10.238537     0.839120     0.083367    42.032038    85.285107    -18.83630   -138.24933     0.797133 
frames/TS_45_029_45.0.mrc           10    44.997000    85.000000    87.000000     -3.00000 MotionCorr/job002/frames/TS_45_029_45_0_PS.mrc MotionCorr/job002/frames/TS_45_029_45_0_EVN.mrc MotionCorr/job002/frames/TS_45_029_45_0_ODD.mrc MotionCorr/job002/frames/TS_45_029_45_0.mrc MotionCorr/job002/frames/TS_45_029_45_0.star     5.118741     0.000000     5.118741 CtfFind/job003/frames/TS_45_029_45_0_PS.ctf:mrc 30301.360762 30638.006534   136.535156   121.519861     0.109358     9.954133     0.542830     0.091533    45.036186    85.299614     -7.74882   -146.07484     0.703245 
frames/TS_45_032_48.0.mrc           10    47.996100    85.000000    96.000000     -3.00000 MotionCorr/job002/frames/TS_45_032_48_0_PS.mrc MotionCorr/job002/frames/TS_45_032_48_0_EVN.mrc MotionCorr/job002/frames/TS_45_032_48_0_ODD.mrc MotionCorr/job002/frames/TS_45_032_48_0.mrc MotionCorr/job002/frames/TS_45_032_48_0.star     5.879206     0.000000     5.879206 CtfFind/job003/frames/TS_45_032_48_0_PS.ctf:mrc 30239.747336 30307.900467    90.181641   134.832143     0.137888    11.026116     0.547000     0.099112    48.046007    85.306560    -25.53491   -154.88941     0.592324 
frames/TS_45_033_51.0.mrc           10    50.996300    85.000000    99.000000     -3.00000 MotionCorr/job002/frames/TS_45_033_51_0_PS.mrc MotionCorr/job002/frames/TS_45_033_51_0_EVN.mrc MotionCorr/job002/frames/TS_45_033_51_0_ODD.mrc MotionCorr/job002/frames/TS_45_033_51_0.mrc MotionCorr/job002/frames/TS_45_033_51_0.star     6.903821     0.000000     6.903821 CtfFind/job003/frames/TS_45_033_51_0_PS.ctf:mrc 30324.308608 30620.479101   308.355469   148.304746     0.122605    11.198400     0.831490     0.066891    51.045010    85.291725     -9.74518   -163.33693     0.506148 
frames/TS_45_036_54.0.mrc           10    53.996900    85.000000   108.000000     -3.00000 MotionCorr/job002/frames/TS_45_036_54_0_PS.mrc MotionCorr/job002/frames/TS_45_036_54_0_EVN.mrc MotionCorr/job002/frames/TS_45_036_54_0_ODD.mrc MotionCorr/job002/frames/TS_45_036_54_0.mrc MotionCorr/job002/frames/TS_45_036_54_0.star     7.638391     0.000000     7.638391 CtfFind/job003/frames/TS_45_036_54_0_PS.ctf:mrc 30108.935138 30269.094874    59.330078   124.568847     0.149805    14.626481     0.689700     0.136428    54.053615    85.358136    -22.00925   -168.69141     0.492506 
frames/TS_45_037_57.0.mrc           10    56.996500    85.000000   111.000000     -3.00000 MotionCorr/job002/frames/TS_45_037_57_0_PS.mrc MotionCorr/job002/frames/TS_45_037_57_0_EVN.mrc MotionCorr/job002/frames/TS_45_037_57_0_ODD.mrc MotionCorr/job002/frames/TS_45_037_57_0.mrc MotionCorr/job002/frames/TS_45_037_57_0.star     9.203906     0.000000     9.203906 CtfFind/job003/frames/TS_45_037_57_0_PS.ctf:mrc 30232.574081 30470.827178    31.580078   153.260674     0.163641    11.198400     0.647150     0.050501    57.049500    85.298204    -13.77549   -176.57181     0.421334 
frames/TS_45_040_60.0.mrc           10    59.995200    85.000000   120.000000     -3.00000 MotionCorr/job002/frames/TS_45_040_60_0_PS.mrc MotionCorr/job002/frames/TS_45_040_60_0_EVN.mrc MotionCorr/job002/frames/TS_45_040_60_0_ODD.mrc MotionCorr/job002/frames/TS_45_040_60_0.mrc MotionCorr/job002/frames/TS_45_040_60_0.star     9.473847     0.000000     9.473847 CtfFind/job003/frames/TS_45_040_60_0_PS.ctf:mrc 30622.611139 30785.564578    78.396484   128.021772     0.168395    13.522596     0.521260     0.049958    60.052844    85.306077    -25.12964   -185.18551     0.501789 
 
