
# version 50001

data_TS_43

loop_ 
_rlnMicrographMovieName #1 
_rlnTomoTiltMovieFrameCount #2 
_rlnTomoNominalStageTiltAngle #3 
_rlnTomoNominalTiltAxisAngle #4 
_rlnMicrographPreExposure #5 
_rlnTomoNominalDefocus #6 
_rlnCtfPowerSpectrum #7 
_rlnMicrographNameEven #8 
_rlnMicrographNameOdd #9 
_rlnMicrographName #10 
_rlnMicrographMetadata #11 
_rlnAccumMotionTotal #12 
_rlnAccumMotionEarly #13 
_rlnAccumMotionLate #14 
_rlnCtfImage #15 
_rlnDefocusU #16 
_rlnDefocusV #17 
_rlnCtfAstigmatism #18 
_rlnDefocusAngle #19 
_rlnCtfFigureOfMerit #20 
_rlnCtfMaxResolution #21 
_rlnCtfIceRingDensity #22 
_rlnTomoXTilt #23 
_rlnTomoYTilt #24 
_rlnTomoZRot #25 
_rlnTomoXShiftAngst #26 
_rlnTomoYShiftAngst #27 
_rlnCtfScalefactor #28 
frames/TS_43_039_-60.0.mrc           10    -59.99910    85.000000   117.000000     -2.50000 MotionCorr/job002/frames/TS_43_039_-60_0_PS.mrc MotionCorr/job002/frames/TS_43_039_-60_0_EVN.mrc MotionCorr/job002/frames/TS_43_039_-60_0_ODD.mrc MotionCorr/job002/frames/TS_43_039_-60_0.mrc MotionCorr/job002/frames/TS_43_039_-60_0.star    16.206940     0.000000    16.206940 CtfFind/job003/frames/TS_43_039_-60_0_PS.ctf:mrc 27077.200492 27529.662712    72.912109   152.048116     0.101234    14.931199     0.610390     0.043254    -59.97161    85.077599    11.079063    48.021173     0.435669 
frames/TS_43_038_-57.0.mrc           10    -56.99900    85.000000   114.000000     -2.50000 MotionCorr/job002/frames/TS_43_038_-57_0_PS.mrc MotionCorr/job002/frames/TS_43_038_-57_0_EVN.mrc MotionCorr/job002/frames/TS_43_038_-57_0_ODD.mrc MotionCorr/job002/frames/TS_43_038_-57_0.mrc MotionCorr/job002/frames/TS_43_038_-57_0.star    15.545098     0.000000    15.545098 CtfFind/job003/frames/TS_43_038_-57_0_PS.ctf:mrc 26502.708482 26674.735324   148.404297   -174.80619     0.118246    13.782646     0.824470     0.038237    -56.96467    85.105620    22.567585    52.398659     0.496246 
frames/TS_43_035_-54.0.mrc           10    -53.99940    85.000000   105.000000     -2.50000 MotionCorr/job002/frames/TS_43_035_-54_0_PS.mrc MotionCorr/job002/frames/TS_43_035_-54_0_EVN.mrc MotionCorr/job002/frames/TS_43_035_-54_0_ODD.mrc MotionCorr/job002/frames/TS_43_035_-54_0.mrc MotionCorr/job002/frames/TS_43_035_-54_0.star     9.453412     0.000000     9.453412 CtfFind/job003/frames/TS_43_035_-54_0_PS.ctf:mrc 26834.614106 26993.875049   188.353516   160.487641     0.108487    14.052894     0.358210     0.098510    -53.96034    85.072786    14.008149    37.595235     0.577165 
frames/TS_43_034_-51.0.mrc           10    -51.00030    85.000000   102.000000     -2.50000 MotionCorr/job002/frames/TS_43_034_-51_0_PS.mrc MotionCorr/job002/frames/TS_43_034_-51_0_EVN.mrc MotionCorr/job002/frames/TS_43_034_-51_0_ODD.mrc MotionCorr/job002/frames/TS_43_034_-51_0.mrc MotionCorr/job002/frames/TS_43_034_-51_0.star     8.636927     0.000000     8.636927 CtfFind/job003/frames/TS_43_034_-51_0_PS.ctf:mrc 26135.907290 26451.272534    87.132812   142.925315     0.100523    15.580382     0.593780     0.049512    -50.95460    85.132785    21.212169    51.244868     0.539830 
frames/TS_43_031_-48.0.mrc           10    -47.99910    85.000000    93.000000     -2.50000 MotionCorr/job002/frames/TS_43_031_-48_0_PS.mrc MotionCorr/job002/frames/TS_43_031_-48_0_EVN.mrc MotionCorr/job002/frames/TS_43_031_-48_0_ODD.mrc MotionCorr/job002/frames/TS_43_031_-48_0.mrc MotionCorr/job002/frames/TS_43_031_-48_0.star     7.402671     0.000000     7.402671 CtfFind/job003/frames/TS_43_031_-48_0_PS.ctf:mrc 25960.363269 26352.756189    46.164062   160.684595     0.100539    10.696979     0.562810     0.104777    -47.95545    85.106373    11.691319    28.922287     0.672000 
frames/TS_43_030_-45.0.mrc           10    -45.00000    85.000000    90.000000     -2.50000 MotionCorr/job002/frames/TS_43_030_-45_0_PS.mrc MotionCorr/job002/frames/TS_43_030_-45_0_EVN.mrc MotionCorr/job002/frames/TS_43_030_-45_0_ODD.mrc MotionCorr/job002/frames/TS_43_030_-45_0.mrc MotionCorr/job002/frames/TS_43_030_-45_0.star     6.843554     0.000000     6.843554 CtfFind/job003/frames/TS_43_030_-45_0_PS.ctf:mrc 25520.019128 25945.511305    56.287109   158.279234     0.106071    11.376152     0.693640     0.094561    -44.95595    85.109453    19.336359    43.948028     0.685332 
frames/TS_43_027_-42.0.mrc           10    -41.99940    85.000000    81.000000     -2.50000 MotionCorr/job002/frames/TS_43_027_-42_0_PS.mrc MotionCorr/job002/frames/TS_43_027_-42_0_EVN.mrc MotionCorr/job002/frames/TS_43_027_-42_0_ODD.mrc MotionCorr/job002/frames/TS_43_027_-42_0.mrc MotionCorr/job002/frames/TS_43_027_-42_0.star     6.120841     0.000000     6.120841 CtfFind/job003/frames/TS_43_027_-42_0_PS.ctf:mrc 25710.373600 26130.198563    91.169922   157.979914     0.092008    10.859054     0.487080     0.097912    -41.94945    85.123189    12.491162    27.309207     0.745051 
frames/TS_43_026_-39.0.mrc           10    -38.99970    85.000000    78.000000     -2.50000 MotionCorr/job002/frames/TS_43_026_-39_0_PS.mrc MotionCorr/job002/frames/TS_43_026_-39_0_EVN.mrc MotionCorr/job002/frames/TS_43_026_-39_0_ODD.mrc MotionCorr/job002/frames/TS_43_026_-39_0.mrc MotionCorr/job002/frames/TS_43_026_-39_0.star     5.769808     0.000000     5.769808 CtfFind/job003/frames/TS_43_026_-39_0_PS.ctf:mrc 25358.462034 25722.454205   390.078125   172.756272     0.077061    10.539670     0.682360     0.082983    -38.94651    85.134347    16.686439    44.671269     0.769344 
frames/TS_43_023_-36.0.mrc           10    -36.00010    85.000000    69.000000     -2.50000 MotionCorr/job002/frames/TS_43_023_-36_0_PS.mrc MotionCorr/job002/frames/TS_43_023_-36_0_EVN.mrc MotionCorr/job002/frames/TS_43_023_-36_0_ODD.mrc MotionCorr/job002/frames/TS_43_023_-36_0.mrc MotionCorr/job002/frames/TS_43_023_-36_0.star     4.895332     0.000000     4.895332 CtfFind/job003/frames/TS_43_023_-36_0_PS.ctf:mrc 25010.351778 25608.626804   379.738281   146.385779     0.080132     9.817775     0.546200     0.074027    -35.96119    85.127470     4.051238    21.398225     0.866277 
frames/TS_43_022_-33.0.mrc           10    -33.00000    85.000000    66.000000     -2.50000 MotionCorr/job002/frames/TS_43_022_-33_0_PS.mrc MotionCorr/job002/frames/TS_43_022_-33_0_EVN.mrc MotionCorr/job002/frames/TS_43_022_-33_0_ODD.mrc MotionCorr/job002/frames/TS_43_022_-33_0.mrc MotionCorr/job002/frames/TS_43_022_-33_0.star     3.799344     0.000000     3.799344 CtfFind/job003/frames/TS_43_022_-33_0_PS.ctf:mrc 24842.034634 25445.884456   575.750000   126.220804     0.060713     9.555968     0.468210     0.090511    -32.97203    85.135640     7.853662    45.688204     0.871993 
frames/TS_43_019_-30.0.mrc           10    -29.99980    85.000000    57.000000     -2.50000 MotionCorr/job002/frames/TS_43_019_-30_0_PS.mrc MotionCorr/job002/frames/TS_43_019_-30_0_EVN.mrc MotionCorr/job002/frames/TS_43_019_-30_0_ODD.mrc MotionCorr/job002/frames/TS_43_019_-30_0.mrc MotionCorr/job002/frames/TS_43_019_-30_0.star     5.360931     0.000000     5.360931 CtfFind/job003/frames/TS_43_019_-30_0_PS.ctf:mrc 24983.448145 25125.982448   560.765625   -141.02832     0.043107     9.685102     0.494240     0.059250    -29.97032    85.135655     -0.85516    18.519249     0.942004 
frames/TS_43_018_-27.0.mrc           10    -27.00070    85.000000    54.000000     -2.50000 MotionCorr/job002/frames/TS_43_018_-27_0_PS.mrc MotionCorr/job002/frames/TS_43_018_-27_0_EVN.mrc MotionCorr/job002/frames/TS_43_018_-27_0_ODD.mrc MotionCorr/job002/frames/TS_43_018_-27_0.mrc MotionCorr/job002/frames/TS_43_018_-27_0.star     3.866844     0.000000     3.866844 CtfFind/job003/frames/TS_43_018_-27_0_PS.ctf:mrc 24797.722183 25254.188474   153.384766   125.232420     0.061933     8.958720     0.649010     0.040153    -26.98334    85.142993     1.033370    43.332167     1.007645 
frames/TS_43_015_-24.0.mrc           10    -24.00060    85.000000    45.000000     -2.50000 MotionCorr/job002/frames/TS_43_015_-24_0_PS.mrc MotionCorr/job002/frames/TS_43_015_-24_0_EVN.mrc MotionCorr/job002/frames/TS_43_015_-24_0_ODD.mrc MotionCorr/job002/frames/TS_43_015_-24_0.mrc MotionCorr/job002/frames/TS_43_015_-24_0.star     4.421890     0.000000     4.421890 CtfFind/job003/frames/TS_43_015_-24_0_PS.ctf:mrc 24730.180940 25392.941219   182.968750   146.337694     0.049548     7.624442     0.529180     0.026033    -24.01597    85.150815     -5.07286    14.469071     1.103724 
frames/TS_43_014_-21.0.mrc           10    -21.00140    85.000000    42.000000     -2.50000 MotionCorr/job002/frames/TS_43_014_-21_0_PS.mrc MotionCorr/job002/frames/TS_43_014_-21_0_EVN.mrc MotionCorr/job002/frames/TS_43_014_-21_0_ODD.mrc MotionCorr/job002/frames/TS_43_014_-21_0.mrc MotionCorr/job002/frames/TS_43_014_-21_0.star     4.970441     0.000000     4.970441 CtfFind/job003/frames/TS_43_014_-21_0_PS.ctf:mrc 24814.612620 25151.162943   330.720703   124.791450     0.066622     6.825691     0.626310     0.012748    -21.05050    85.150249     -0.00803    34.813597     1.086898 
frames/TS_43_011_-18.0.mrc           10    -18.00330    85.000000    33.000000     -2.50000 MotionCorr/job002/frames/TS_43_011_-18_0_PS.mrc MotionCorr/job002/frames/TS_43_011_-18_0_EVN.mrc MotionCorr/job002/frames/TS_43_011_-18_0_ODD.mrc MotionCorr/job002/frames/TS_43_011_-18_0.mrc MotionCorr/job002/frames/TS_43_011_-18_0.star     5.192582     0.000000     5.192582 CtfFind/job003/frames/TS_43_011_-18_0_PS.ctf:mrc 24760.128464 25268.943292   473.890625   128.624849     0.068067     6.698108     0.651080     0.002027    -18.04108    85.153604     2.528618    20.096043     1.239593 
frames/TS_43_010_-15.0.mrc           10    -15.00370    85.000000    30.000000     -2.50000 MotionCorr/job002/frames/TS_43_010_-15_0_PS.mrc MotionCorr/job002/frames/TS_43_010_-15_0_EVN.mrc MotionCorr/job002/frames/TS_43_010_-15_0_ODD.mrc MotionCorr/job002/frames/TS_43_010_-15_0.mrc MotionCorr/job002/frames/TS_43_010_-15_0.star     3.478029     0.000000     3.478029 CtfFind/job003/frames/TS_43_010_-15_0_PS.ctf:mrc 24823.179729 25254.320541    88.986328   129.782556     0.061613     6.825691     0.625790     0.016855    -15.03842    85.156260     7.045992    37.000598     1.274566 
frames/TS_43_007_-12.0.mrc           10    -11.99900    85.000000    21.000000     -2.50000 MotionCorr/job002/frames/TS_43_007_-12_0_PS.mrc MotionCorr/job002/frames/TS_43_007_-12_0_EVN.mrc MotionCorr/job002/frames/TS_43_007_-12_0_ODD.mrc MotionCorr/job002/frames/TS_43_007_-12_0.mrc MotionCorr/job002/frames/TS_43_007_-12_0.star     3.865264     0.000000     3.865264 CtfFind/job003/frames/TS_43_007_-12_0_PS.ctf:mrc 24888.376639 25178.021782   588.361328   142.704598     0.049256     7.096016     0.756730 -8.75202e-04    -12.04061    85.164074     4.892625    33.157009     1.344449 
frames/TS_43_006_-9.0.mrc           10     -8.99890    85.000000    18.000000     -2.50000 MotionCorr/job002/frames/TS_43_006_-9_0_PS.mrc MotionCorr/job002/frames/TS_43_006_-9_0_EVN.mrc MotionCorr/job002/frames/TS_43_006_-9_0_ODD.mrc MotionCorr/job002/frames/TS_43_006_-9_0.mrc MotionCorr/job002/frames/TS_43_006_-9_0.star     3.285717     0.000000     3.285717 CtfFind/job003/frames/TS_43_006_-9_0_PS.ctf:mrc 24904.132551 25150.467352   337.947266   144.301600     0.068861     5.599200     0.734410     -0.01693     -9.04013    85.168178     5.519148    22.425784     1.402011 
frames/TS_43_003_-6.0.mrc           10     -5.99927    85.000000     9.000000     -2.50000 MotionCorr/job002/frames/TS_43_003_-6_0_PS.mrc MotionCorr/job002/frames/TS_43_003_-6_0_EVN.mrc MotionCorr/job002/frames/TS_43_003_-6_0_ODD.mrc MotionCorr/job002/frames/TS_43_003_-6_0.mrc MotionCorr/job002/frames/TS_43_003_-6_0.star     3.384419     0.000000     3.384419 CtfFind/job003/frames/TS_43_003_-6_0_PS.ctf:mrc 24950.924928 25284.813709   588.732422   142.066563     0.061944     6.125620     0.777030     -0.01126     -6.02247    85.171619     5.890451    38.237755     1.399263 
frames/TS_43_002_-3.0.mrc           10     -2.99913    85.000000     6.000000     -2.50000 MotionCorr/job002/frames/TS_43_002_-3_0_PS.mrc MotionCorr/job002/frames/TS_43_002_-3_0_EVN.mrc MotionCorr/job002/frames/TS_43_002_-3_0_ODD.mrc MotionCorr/job002/frames/TS_43_002_-3_0.mrc MotionCorr/job002/frames/TS_43_002_-3_0.star     3.167235     0.000000     3.167235 CtfFind/job003/frames/TS_43_002_-3_0_PS.ctf:mrc 24980.372167 25218.478726   112.949219   135.523635     0.066759     5.826810     0.582620     -0.01021     -3.01755    85.177118     6.551410    14.433327     1.461503 
frames/TS_43_000_0.0.mrc           10     0.000000    85.000000     0.000000     -2.50000 MotionCorr/job002/frames/TS_43_000_0_0_PS.mrc MotionCorr/job002/frames/TS_43_000_0_0_EVN.mrc MotionCorr/job002/frames/TS_43_000_0_0_ODD.mrc MotionCorr/job002/frames/TS_43_000_0_0.mrc MotionCorr/job002/frames/TS_43_000_0_0.star     2.810945     0.896793     1.914152 CtfFind/job003/frames/TS_43_000_0_0_PS.ctf:mrc 24932.919909 25189.748340   232.798828   143.925439     0.062880     5.269835     0.692870     -0.01418     -0.02271    85.184480     -1.91238     -4.33683     1.362523 
frames/TS_43_001_3.0.mrc           10     3.000130    85.000000     3.000000     -2.50000 MotionCorr/job002/frames/TS_43_001_3_0_PS.mrc MotionCorr/job002/frames/TS_43_001_3_0_EVN.mrc MotionCorr/job002/frames/TS_43_001_3_0_ODD.mrc MotionCorr/job002/frames/TS_43_001_3_0.mrc MotionCorr/job002/frames/TS_43_001_3_0.star     3.184465     0.000000     3.184465 CtfFind/job003/frames/TS_43_001_3_0_PS.ctf:mrc 24860.002265 25144.565714   178.857422   133.572679     0.064948     5.688076     0.706130     -0.00895     2.996820    85.188800     0.366118    -24.89322     1.364321 
frames/TS_43_004_6.0.mrc           10     5.999270    85.000000    12.000000     -2.50000 MotionCorr/job002/frames/TS_43_004_6_0_PS.mrc MotionCorr/job002/frames/TS_43_004_6_0_EVN.mrc MotionCorr/job002/frames/TS_43_004_6_0_ODD.mrc MotionCorr/job002/frames/TS_43_004_6_0.mrc MotionCorr/job002/frames/TS_43_004_6_0.star     2.978147     0.000000     2.978147 CtfFind/job003/frames/TS_43_004_6_0_PS.ctf:mrc 24819.950632 25112.013329   282.867188   127.354151     0.076066     5.826810     0.567600     0.002134     6.047037    85.196869     -2.31584    -38.86986     1.429344 
frames/TS_43_005_9.0.mrc           10     8.998400    85.000000    15.000000     -2.50000 MotionCorr/job002/frames/TS_43_005_9_0_PS.mrc MotionCorr/job002/frames/TS_43_005_9_0_EVN.mrc MotionCorr/job002/frames/TS_43_005_9_0_ODD.mrc MotionCorr/job002/frames/TS_43_005_9_0.mrc MotionCorr/job002/frames/TS_43_005_9_0.star     3.477681     0.000000     3.477681 CtfFind/job003/frames/TS_43_005_9_0_PS.ctf:mrc 24874.790778 25182.662587   166.478516   136.965565     0.070367     5.923120     0.569470     0.009972     9.048618    85.203613     -0.51419    -23.97504     1.443185 
frames/TS_43_008_12.0.mrc           10    11.999000    85.000000    24.000000     -2.50000 MotionCorr/job002/frames/TS_43_008_12_0_PS.mrc MotionCorr/job002/frames/TS_43_008_12_0_EVN.mrc MotionCorr/job002/frames/TS_43_008_12_0_ODD.mrc MotionCorr/job002/frames/TS_43_008_12_0.mrc MotionCorr/job002/frames/TS_43_008_12_0.star     3.335631     0.000000     3.335631 CtfFind/job003/frames/TS_43_008_12_0_PS.ctf:mrc 24866.882776 25137.773035   343.832031   135.497823     0.074413     6.515432     0.543050     0.008780    12.080982    85.210452     -1.71648    -39.95569     1.365919 
frames/TS_43_009_15.0.mrc           10    15.000200    85.000000    27.000000     -2.50000 MotionCorr/job002/frames/TS_43_009_15_0_PS.mrc MotionCorr/job002/frames/TS_43_009_15_0_EVN.mrc MotionCorr/job002/frames/TS_43_009_15_0_ODD.mrc MotionCorr/job002/frames/TS_43_009_15_0.mrc MotionCorr/job002/frames/TS_43_009_15_0.star     3.416277     0.000000     3.416277 CtfFind/job003/frames/TS_43_009_15_0_PS.ctf:mrc 24729.951318 25096.642600   392.593750   132.179591     0.086109     6.456735     0.724480     0.021520    15.082915    85.211520     -4.20458    -21.92260     1.315447 
frames/TS_43_012_18.0.mrc           10    18.000800    85.000000    36.000000     -2.50000 MotionCorr/job002/frames/TS_43_012_18_0_PS.mrc MotionCorr/job002/frames/TS_43_012_18_0_EVN.mrc MotionCorr/job002/frames/TS_43_012_18_0_ODD.mrc MotionCorr/job002/frames/TS_43_012_18_0.mrc MotionCorr/job002/frames/TS_43_012_18_0.star     3.552104     0.000000     3.552104 CtfFind/job003/frames/TS_43_012_18_0_PS.ctf:mrc 24683.533642 25121.709414   227.203125   134.953993     0.083819     6.891323     0.691180     0.023062    18.089583    85.217245     -4.16631    -44.32685     1.222167 
frames/TS_43_013_21.0.mrc           10    20.999900    85.000000    39.000000     -2.50000 MotionCorr/job002/frames/TS_43_013_21_0_PS.mrc MotionCorr/job002/frames/TS_43_013_21_0_EVN.mrc MotionCorr/job002/frames/TS_43_013_21_0_ODD.mrc MotionCorr/job002/frames/TS_43_013_21_0.mrc MotionCorr/job002/frames/TS_43_013_21_0.star     3.772947     0.000000     3.772947 CtfFind/job003/frames/TS_43_013_21_0_PS.ctf:mrc 24904.936856 25056.238737   616.460938   136.238904     0.071382     7.313241     0.628430     0.083404    21.103419    85.239143     -5.66142    -43.95806     1.185719 
frames/TS_43_016_24.0.mrc           10    23.999600    85.000000    48.000000     -2.50000 MotionCorr/job002/frames/TS_43_016_24_0_PS.mrc MotionCorr/job002/frames/TS_43_016_24_0_EVN.mrc MotionCorr/job002/frames/TS_43_016_24_0_ODD.mrc MotionCorr/job002/frames/TS_43_016_24_0.mrc MotionCorr/job002/frames/TS_43_016_24_0.star     3.618342     0.000000     3.618342 CtfFind/job003/frames/TS_43_016_24_0_PS.ctf:mrc 24664.295758 25202.808233   170.056641   142.838817     0.064698     7.166976     0.649240     0.102147    24.116277    85.259372     -9.15272    -42.28269     1.149466 
frames/TS_43_017_27.0.mrc           10    26.999700    85.000000    51.000000     -2.50000 MotionCorr/job002/frames/TS_43_017_27_0_PS.mrc MotionCorr/job002/frames/TS_43_017_27_0_EVN.mrc MotionCorr/job002/frames/TS_43_017_27_0_ODD.mrc MotionCorr/job002/frames/TS_43_017_27_0.mrc MotionCorr/job002/frames/TS_43_017_27_0.star     3.617766     0.000000     3.617766 CtfFind/job003/frames/TS_43_017_27_0_PS.ctf:mrc 24464.769957 25410.903244   420.746094   160.551502     0.081374     8.052782     0.950310     0.089834    27.114232    85.268309     -8.51537    -34.23702     1.072879 
frames/TS_43_020_30.0.mrc           10    29.999800    85.000000    60.000000     -2.50000 MotionCorr/job002/frames/TS_43_020_30_0_PS.mrc MotionCorr/job002/frames/TS_43_020_30_0_EVN.mrc MotionCorr/job002/frames/TS_43_020_30_0_ODD.mrc MotionCorr/job002/frames/TS_43_020_30_0.mrc MotionCorr/job002/frames/TS_43_020_30_0.star     4.117562     0.000000     4.117562 CtfFind/job003/frames/TS_43_020_30_0_PS.ctf:mrc 24822.790806 25074.112724   119.605469   122.282605     0.086438     9.188430     0.669700     0.100358    30.066021    85.270081    -13.03061    -43.15472     1.005277 
frames/TS_43_021_33.0.mrc           10    33.000000    85.000000    63.000000     -2.50000 MotionCorr/job002/frames/TS_43_021_33_0_PS.mrc MotionCorr/job002/frames/TS_43_021_33_0_EVN.mrc MotionCorr/job002/frames/TS_43_021_33_0_ODD.mrc MotionCorr/job002/frames/TS_43_021_33_0.mrc MotionCorr/job002/frames/TS_43_021_33_0.star     4.916295     0.000000     4.916295 CtfFind/job003/frames/TS_43_021_33_0_PS.ctf:mrc 24268.567276 25160.503565   100.339844   136.412969     0.070019     8.740214     0.724740     0.119894    33.086326    85.283894     -8.38480    -31.17020     1.034503 
frames/TS_43_024_36.0.mrc           10    35.999600    85.000000    72.000000     -2.50000 MotionCorr/job002/frames/TS_43_024_36_0_PS.mrc MotionCorr/job002/frames/TS_43_024_36_0_EVN.mrc MotionCorr/job002/frames/TS_43_024_36_0_ODD.mrc MotionCorr/job002/frames/TS_43_024_36_0.mrc MotionCorr/job002/frames/TS_43_024_36_0.star     5.823372     0.000000     5.823372 CtfFind/job003/frames/TS_43_024_36_0_PS.ctf:mrc 24485.098625 25018.537013   271.441406   109.860214     0.112629     9.685102     0.672340     0.134053    36.102592    85.299974    -17.26757    -52.31498     0.883541 
frames/TS_43_025_39.0.mrc           10    38.999200    85.000000    75.000000     -2.50000 MotionCorr/job002/frames/TS_43_025_39_0_PS.mrc MotionCorr/job002/frames/TS_43_025_39_0_EVN.mrc MotionCorr/job002/frames/TS_43_025_39_0_ODD.mrc MotionCorr/job002/frames/TS_43_025_39_0.mrc MotionCorr/job002/frames/TS_43_025_39_0.star     4.309618     0.000000     4.309618 CtfFind/job003/frames/TS_43_025_39_0_PS.ctf:mrc 24732.696483 25177.473960   266.675781   169.850904     0.097874     8.958720     0.485110     0.129865    39.126750    85.299846     -4.76405    -29.78057     0.868203 
frames/TS_43_028_42.0.mrc           10    41.999400    85.000000    84.000000     -2.50000 MotionCorr/job002/frames/TS_43_028_42_0_PS.mrc MotionCorr/job002/frames/TS_43_028_42_0_EVN.mrc MotionCorr/job002/frames/TS_43_028_42_0_ODD.mrc MotionCorr/job002/frames/TS_43_028_42_0.mrc MotionCorr/job002/frames/TS_43_028_42_0.star     4.040794     0.000000     4.040794 CtfFind/job003/frames/TS_43_028_42_0_PS.ctf:mrc 25014.572691 25711.428506   116.673828   161.525735     0.082902     9.555968     0.634540     0.214652    42.124357    85.356583    -17.63758    -50.30505     0.811636 
frames/TS_43_029_45.0.mrc           10    44.999000    85.000000    87.000000     -2.50000 MotionCorr/job002/frames/TS_43_029_45_0_PS.mrc MotionCorr/job002/frames/TS_43_029_45_0_EVN.mrc MotionCorr/job002/frames/TS_43_029_45_0_ODD.mrc MotionCorr/job002/frames/TS_43_029_45_0.mrc MotionCorr/job002/frames/TS_43_029_45_0.star     4.307779     0.000000     4.307779 CtfFind/job003/frames/TS_43_029_45_0_PS.ctf:mrc 25026.106130 25508.667310   117.291016   146.647483     0.105520     9.817775     0.607800     0.183410    45.062419    85.349696     -3.65608    -33.66546     0.822885 
frames/TS_43_032_48.0.mrc           10    47.997100    85.000000    96.000000     -2.50000 MotionCorr/job002/frames/TS_43_032_48_0_PS.mrc MotionCorr/job002/frames/TS_43_032_48_0_EVN.mrc MotionCorr/job002/frames/TS_43_032_48_0_ODD.mrc MotionCorr/job002/frames/TS_43_032_48_0.mrc MotionCorr/job002/frames/TS_43_032_48_0.star     3.090059     0.000000     3.090059 CtfFind/job003/frames/TS_43_032_48_0_PS.ctf:mrc 25153.765981 25658.812799   178.550781   128.894163     0.157173    11.026116     0.630040     0.205485    48.095355    85.373447    -22.32246    -56.65634     0.759488 
frames/TS_43_033_51.0.mrc           10    50.996300    85.000000    99.000000     -2.50000 MotionCorr/job002/frames/TS_43_033_51_0_PS.mrc MotionCorr/job002/frames/TS_43_033_51_0_EVN.mrc MotionCorr/job002/frames/TS_43_033_51_0_ODD.mrc MotionCorr/job002/frames/TS_43_033_51_0.mrc MotionCorr/job002/frames/TS_43_033_51_0.star     5.632723     0.000000     5.632723 CtfFind/job003/frames/TS_43_033_51_0_PS.ctf:mrc 24881.314179 25426.355929   185.080078   125.223347     0.100378    11.944960     0.412290     0.196872    51.090970    85.382415     -7.53528    -33.93397     0.728723 
frames/TS_43_036_54.0.mrc           10    53.996900    85.000000   108.000000     -2.50000 MotionCorr/job002/frames/TS_43_036_54_0_PS.mrc MotionCorr/job002/frames/TS_43_036_54_0_EVN.mrc MotionCorr/job002/frames/TS_43_036_54_0_ODD.mrc MotionCorr/job002/frames/TS_43_036_54_0.mrc MotionCorr/job002/frames/TS_43_036_54_0.star     3.820902     0.000000     3.820902 CtfFind/job003/frames/TS_43_036_54_0_PS.ctf:mrc 25190.066139 25333.673612   101.689453   154.659046     0.150460    12.573642     0.488930     0.249173    54.075770    85.433360    -23.08328    -60.47789     0.685759 
frames/TS_43_037_57.0.mrc           10    56.996000    85.000000   111.000000     -2.50000 MotionCorr/job002/frames/TS_43_037_57_0_PS.mrc MotionCorr/job002/frames/TS_43_037_57_0_EVN.mrc MotionCorr/job002/frames/TS_43_037_57_0_ODD.mrc MotionCorr/job002/frames/TS_43_037_57_0.mrc MotionCorr/job002/frames/TS_43_037_57_0.star     7.472044     0.000000     7.472044 CtfFind/job003/frames/TS_43_037_57_0_PS.ctf:mrc 25180.265694 25375.216020    30.246094   152.248279     0.158437    13.272177     0.996970     0.253559    57.072044    85.455257    -10.15069    -46.55342     0.543670 
frames/TS_43_040_60.0.mrc           10    59.996200    85.000000   120.000000     -2.50000 MotionCorr/job002/frames/TS_43_040_60_0_PS.mrc MotionCorr/job002/frames/TS_43_040_60_0_EVN.mrc MotionCorr/job002/frames/TS_43_040_60_0_ODD.mrc MotionCorr/job002/frames/TS_43_040_60_0.mrc MotionCorr/job002/frames/TS_43_040_60_0.star     5.212197     0.000000     5.212197 CtfFind/job003/frames/TS_43_040_60_0_PS.ctf:mrc 25279.715196 25296.926952   119.343750   123.201783     0.192743    15.248884     0.518320     0.260981    60.076940    85.481626    -29.17876    -80.05443     0.471089 
 
