
# version 50001

data_TS_43

loop_ 
_rlnMicrographMovieName #1 
_rlnTomoTiltMovieFrameCount #2 
_rlnTomoNominalStageTiltAngle #3 
_rlnTomoNominalTiltAxisAngle #4 
_rlnMicrographPreExposure #5 
_rlnTomoNominalDefocus #6 
_rlnCtfPowerSpectrum #7 
_rlnMicrographNameEven #8 
_rlnMicrographNameOdd #9 
_rlnMicrographName #10 
_rlnMicrographMetadata #11 
_rlnAccumMotionTotal #12 
_rlnAccumMotionEarly #13 
_rlnAccumMotionLate #14 
_rlnCtfImage #15 
_rlnDefocusU #16 
_rlnDefocusV #17 
_rlnCtfAstigmatism #18 
_rlnDefocusAngle #19 
_rlnCtfFigureOfMerit #20 
_rlnCtfMaxResolution #21 
_rlnCtfIceRingDensity #22 
_rlnTomoXTilt #23 
_rlnTomoYTilt #24 
_rlnTomoZRot #25 
_rlnTomoXShiftAngst #26 
_rlnTomoYShiftAngst #27 
_rlnCtfScalefactor #28 
frames/TS_43_039_-60.0.mrc           10    -59.99910    85.000000   117.000000     -2.50000 MotionCorr/job002/frames/TS_43_039_-60_0_PS.mrc MotionCorr/job002/frames/TS_43_039_-60_0_EVN.mrc MotionCorr/job002/frames/TS_43_039_-60_0_ODD.mrc MotionCorr/job002/frames/TS_43_039_-60_0.mrc MotionCorr/job002/frames/TS_43_039_-60_0.star    16.206940     0.000000    16.206940 CtfFind/job003/frames/TS_43_039_-60_0_PS.ctf:mrc 26911.882911 27424.960906    72.912109   135.586608     0.101234    14.931199     0.610390     0.146712    -59.97622    85.182278    11.393629    45.913070     0.555565 
frames/TS_43_038_-57.0.mrc           10    -56.99900    85.000000   114.000000     -2.50000 MotionCorr/job002/frames/TS_43_038_-57_0_PS.mrc MotionCorr/job002/frames/TS_43_038_-57_0_EVN.mrc MotionCorr/job002/frames/TS_43_038_-57_0_ODD.mrc MotionCorr/job002/frames/TS_43_038_-57_0.mrc MotionCorr/job002/frames/TS_43_038_-57_0.star    15.545098     0.000000    15.545098 CtfFind/job003/frames/TS_43_038_-57_0_PS.ctf:mrc 26408.295504 26587.527706   148.404297   178.488683     0.118246    13.782646     0.824470     0.146875    -56.97108    85.135455    22.040458    51.971563     0.608645 
frames/TS_43_035_-54.0.mrc           10    -53.99940    85.000000   105.000000     -2.50000 MotionCorr/job002/frames/TS_43_035_-54_0_PS.mrc MotionCorr/job002/frames/TS_43_035_-54_0_EVN.mrc MotionCorr/job002/frames/TS_43_035_-54_0_ODD.mrc MotionCorr/job002/frames/TS_43_035_-54_0.mrc MotionCorr/job002/frames/TS_43_035_-54_0.star     9.453412     0.000000     9.453412 CtfFind/job003/frames/TS_43_035_-54_0_PS.ctf:mrc 26368.681322 26574.767437   188.353516   157.252972     0.108487    14.052894     0.358210     0.134007    -53.99533    85.120446    13.945643    37.388515     0.696028 
frames/TS_43_034_-51.0.mrc           10    -51.00030    85.000000   102.000000     -2.50000 MotionCorr/job002/frames/TS_43_034_-51_0_PS.mrc MotionCorr/job002/frames/TS_43_034_-51_0_EVN.mrc MotionCorr/job002/frames/TS_43_034_-51_0_ODD.mrc MotionCorr/job002/frames/TS_43_034_-51_0.mrc MotionCorr/job002/frames/TS_43_034_-51_0.star     8.636927     0.000000     8.636927 CtfFind/job003/frames/TS_43_034_-51_0_PS.ctf:mrc 25895.716251 26184.118560    87.132812   130.694857     0.100523    15.580382     0.593780     0.078422    -50.94762    85.123124    21.135656    52.500188     0.638993 
frames/TS_43_031_-48.0.mrc           10    -47.99910    85.000000    93.000000     -2.50000 MotionCorr/job002/frames/TS_43_031_-48_0_PS.mrc MotionCorr/job002/frames/TS_43_031_-48_0_EVN.mrc MotionCorr/job002/frames/TS_43_031_-48_0_ODD.mrc MotionCorr/job002/frames/TS_43_031_-48_0.mrc MotionCorr/job002/frames/TS_43_031_-48_0.star     7.402671     0.000000     7.402671 CtfFind/job003/frames/TS_43_031_-48_0_PS.ctf:mrc 25601.757464 26225.649652    46.164062   150.656229     0.100539    10.696979     0.562810     0.076101    -48.00763    85.114814    11.559193    28.550797     0.789626 
frames/TS_43_030_-45.0.mrc           10    -45.00000    85.000000    90.000000     -2.50000 MotionCorr/job002/frames/TS_43_030_-45_0_PS.mrc MotionCorr/job002/frames/TS_43_030_-45_0_EVN.mrc MotionCorr/job002/frames/TS_43_030_-45_0_ODD.mrc MotionCorr/job002/frames/TS_43_030_-45_0.mrc MotionCorr/job002/frames/TS_43_030_-45_0.star     6.843554     0.000000     6.843554 CtfFind/job003/frames/TS_43_030_-45_0_PS.ctf:mrc 25209.988197 25610.604907    56.287109   154.053138     0.106071    11.376152     0.693640     0.105415    -44.99370    85.121945    19.301288    44.417684     0.813223 
frames/TS_43_027_-42.0.mrc           10    -41.99940    85.000000    81.000000     -2.50000 MotionCorr/job002/frames/TS_43_027_-42_0_PS.mrc MotionCorr/job002/frames/TS_43_027_-42_0_EVN.mrc MotionCorr/job002/frames/TS_43_027_-42_0_ODD.mrc MotionCorr/job002/frames/TS_43_027_-42_0.mrc MotionCorr/job002/frames/TS_43_027_-42_0.star     6.120841     0.000000     6.120841 CtfFind/job003/frames/TS_43_027_-42_0_PS.ctf:mrc 25613.987494 26052.991263    91.169922   160.451325     0.092008    10.859054     0.487080     0.079143    -42.01264    85.126666    12.401005    27.034194     0.866520 
frames/TS_43_026_-39.0.mrc           10    -38.99970    85.000000    78.000000     -2.50000 MotionCorr/job002/frames/TS_43_026_-39_0_PS.mrc MotionCorr/job002/frames/TS_43_026_-39_0_EVN.mrc MotionCorr/job002/frames/TS_43_026_-39_0_ODD.mrc MotionCorr/job002/frames/TS_43_026_-39_0.mrc MotionCorr/job002/frames/TS_43_026_-39_0.star     5.769808     0.000000     5.769808 CtfFind/job003/frames/TS_43_026_-39_0_PS.ctf:mrc 25071.935147 25306.834092   390.078125    99.592633     0.077061    10.539670     0.682360     0.080329    -39.00633    85.138217    16.679252    44.556517     0.902841 
frames/TS_43_023_-36.0.mrc           10    -36.00010    85.000000    69.000000     -2.50000 MotionCorr/job002/frames/TS_43_023_-36_0_PS.mrc MotionCorr/job002/frames/TS_43_023_-36_0_EVN.mrc MotionCorr/job002/frames/TS_43_023_-36_0_ODD.mrc MotionCorr/job002/frames/TS_43_023_-36_0.mrc MotionCorr/job002/frames/TS_43_023_-36_0.star     4.895332     0.000000     4.895332 CtfFind/job003/frames/TS_43_023_-36_0_PS.ctf:mrc 24876.474511 25340.939408   379.738281   128.884001     0.080132     9.817775     0.546200     0.070563    -36.03417    85.124371     4.032869    21.069514     1.014874 
frames/TS_43_022_-33.0.mrc           10    -33.00000    85.000000    66.000000     -2.50000 MotionCorr/job002/frames/TS_43_022_-33_0_PS.mrc MotionCorr/job002/frames/TS_43_022_-33_0_EVN.mrc MotionCorr/job002/frames/TS_43_022_-33_0_ODD.mrc MotionCorr/job002/frames/TS_43_022_-33_0.mrc MotionCorr/job002/frames/TS_43_022_-33_0.star     3.799344     0.000000     3.799344 CtfFind/job003/frames/TS_43_022_-33_0_PS.ctf:mrc 24742.780002 25400.925113   575.750000   120.487057     0.060713     9.555968     0.468210     0.093873    -33.03758    85.131820     7.862648    45.381187     1.013900 
frames/TS_43_019_-30.0.mrc           10    -29.99980    85.000000    57.000000     -2.50000 MotionCorr/job002/frames/TS_43_019_-30_0_PS.mrc MotionCorr/job002/frames/TS_43_019_-30_0_EVN.mrc MotionCorr/job002/frames/TS_43_019_-30_0_ODD.mrc MotionCorr/job002/frames/TS_43_019_-30_0.mrc MotionCorr/job002/frames/TS_43_019_-30_0.star     5.360931     0.000000     5.360931 CtfFind/job003/frames/TS_43_019_-30_0_PS.ctf:mrc 24950.903709 25042.533330   560.765625    79.834560     0.043107     9.685102     0.494240     0.070633    -30.02988    85.130608     -0.78842    18.453743     1.096328 
frames/TS_43_018_-27.0.mrc           10    -27.00070    85.000000    54.000000     -2.50000 MotionCorr/job002/frames/TS_43_018_-27_0_PS.mrc MotionCorr/job002/frames/TS_43_018_-27_0_EVN.mrc MotionCorr/job002/frames/TS_43_018_-27_0_ODD.mrc MotionCorr/job002/frames/TS_43_018_-27_0.mrc MotionCorr/job002/frames/TS_43_018_-27_0.star     3.866844     0.000000     3.866844 CtfFind/job003/frames/TS_43_018_-27_0_PS.ctf:mrc 24752.680447 25289.838352   153.384766   119.059853     0.061933     8.958720     0.649010     0.053234    -27.03839    85.140386     1.068334    43.175003     1.168427 
frames/TS_43_015_-24.0.mrc           10    -24.00060    85.000000    45.000000     -2.50000 MotionCorr/job002/frames/TS_43_015_-24_0_PS.mrc MotionCorr/job002/frames/TS_43_015_-24_0_EVN.mrc MotionCorr/job002/frames/TS_43_015_-24_0_ODD.mrc MotionCorr/job002/frames/TS_43_015_-24_0.mrc MotionCorr/job002/frames/TS_43_015_-24_0.star     4.421890     0.000000     4.421890 CtfFind/job003/frames/TS_43_015_-24_0_PS.ctf:mrc 24695.448544 25356.019738   182.968750   142.701287     0.049548     7.624442     0.529180     0.038244    -24.06124    85.146689     -5.03176    14.422130     1.278829 
frames/TS_43_014_-21.0.mrc           10    -21.00140    85.000000    42.000000     -2.50000 MotionCorr/job002/frames/TS_43_014_-21_0_PS.mrc MotionCorr/job002/frames/TS_43_014_-21_0_EVN.mrc MotionCorr/job002/frames/TS_43_014_-21_0_ODD.mrc MotionCorr/job002/frames/TS_43_014_-21_0.mrc MotionCorr/job002/frames/TS_43_014_-21_0.star     4.970441     0.000000     4.970441 CtfFind/job003/frames/TS_43_014_-21_0_PS.ctf:mrc 24918.496751 25099.843927   330.720703   114.557594     0.066622     6.825691     0.626310     0.022762    -21.08659    85.147145     0.011549    34.816509     1.254888 
frames/TS_43_011_-18.0.mrc           10    -18.00330    85.000000    33.000000     -2.50000 MotionCorr/job002/frames/TS_43_011_-18_0_PS.mrc MotionCorr/job002/frames/TS_43_011_-18_0_EVN.mrc MotionCorr/job002/frames/TS_43_011_-18_0_ODD.mrc MotionCorr/job002/frames/TS_43_011_-18_0.mrc MotionCorr/job002/frames/TS_43_011_-18_0.star     5.192582     0.000000     5.192582 CtfFind/job003/frames/TS_43_011_-18_0_PS.ctf:mrc 24752.108768 25229.124226   473.890625   130.897284     0.068067     6.698108     0.651080     0.008557    -18.07069    85.151713     2.577907    20.048254     1.431303 
frames/TS_43_010_-15.0.mrc           10    -15.00370    85.000000    30.000000     -2.50000 MotionCorr/job002/frames/TS_43_010_-15_0_PS.mrc MotionCorr/job002/frames/TS_43_010_-15_0_EVN.mrc MotionCorr/job002/frames/TS_43_010_-15_0_ODD.mrc MotionCorr/job002/frames/TS_43_010_-15_0.mrc MotionCorr/job002/frames/TS_43_010_-15_0.star     3.478029     0.000000     3.478029 CtfFind/job003/frames/TS_43_010_-15_0_PS.ctf:mrc 24848.837269 25214.080022    88.986328   126.481179     0.061613     6.825691     0.625790     0.022686    -15.06384    85.154676     7.050955    37.058169     1.467859 
frames/TS_43_007_-12.0.mrc           10    -11.99900    85.000000    21.000000     -2.50000 MotionCorr/job002/frames/TS_43_007_-12_0_PS.mrc MotionCorr/job002/frames/TS_43_007_-12_0_EVN.mrc MotionCorr/job002/frames/TS_43_007_-12_0_ODD.mrc MotionCorr/job002/frames/TS_43_007_-12_0.mrc MotionCorr/job002/frames/TS_43_007_-12_0.star     3.865264     0.000000     3.865264 CtfFind/job003/frames/TS_43_007_-12_0_PS.ctf:mrc 24867.181891 25126.373866   588.361328   139.465424     0.049256     7.096016     0.756730     0.003139    -12.05425    85.161666     4.877635    33.228559     1.544724 
frames/TS_43_006_-9.0.mrc           10     -8.99890    85.000000    18.000000     -2.50000 MotionCorr/job002/frames/TS_43_006_-9_0_PS.mrc MotionCorr/job002/frames/TS_43_006_-9_0_EVN.mrc MotionCorr/job002/frames/TS_43_006_-9_0_ODD.mrc MotionCorr/job002/frames/TS_43_006_-9_0.mrc MotionCorr/job002/frames/TS_43_006_-9_0.star     3.285717     0.000000     3.285717 CtfFind/job003/frames/TS_43_006_-9_0_PS.ctf:mrc 24902.823527 25131.284630   337.947266   141.772195     0.068861     5.599200     0.734410     -0.01048     -9.04960    85.165866     5.513719    22.482832     1.604932 
frames/TS_43_003_-6.0.mrc           10     -5.99927    85.000000     9.000000     -2.50000 MotionCorr/job002/frames/TS_43_003_-6_0_PS.mrc MotionCorr/job002/frames/TS_43_003_-6_0_EVN.mrc MotionCorr/job002/frames/TS_43_003_-6_0_ODD.mrc MotionCorr/job002/frames/TS_43_003_-6_0.mrc MotionCorr/job002/frames/TS_43_003_-6_0.star     3.384419     0.000000     3.384419 CtfFind/job003/frames/TS_43_003_-6_0_PS.ctf:mrc 24871.281312 25198.757091   588.732422   141.548367     0.061944     6.125620     0.777030     -0.00845     -6.02521    85.170203     5.832399    38.563009     1.604009 
frames/TS_43_002_-3.0.mrc           10     -2.99913    85.000000     6.000000     -2.50000 MotionCorr/job002/frames/TS_43_002_-3_0_PS.mrc MotionCorr/job002/frames/TS_43_002_-3_0_EVN.mrc MotionCorr/job002/frames/TS_43_002_-3_0_ODD.mrc MotionCorr/job002/frames/TS_43_002_-3_0.mrc MotionCorr/job002/frames/TS_43_002_-3_0.star     3.167235     0.000000     3.167235 CtfFind/job003/frames/TS_43_002_-3_0_PS.ctf:mrc 24899.983676 25189.234195   112.949219   136.465205     0.066759     5.826810     0.582620     -0.00801     -3.01434    85.174909     6.544145    14.490957     1.631686 
frames/TS_43_000_0.0.mrc           10     0.000000    85.000000     0.000000     -2.50000 MotionCorr/job002/frames/TS_43_000_0_0_PS.mrc MotionCorr/job002/frames/TS_43_000_0_0_EVN.mrc MotionCorr/job002/frames/TS_43_000_0_0_ODD.mrc MotionCorr/job002/frames/TS_43_000_0_0.mrc MotionCorr/job002/frames/TS_43_000_0_0.star     2.810945     0.896793     1.914152 CtfFind/job003/frames/TS_43_000_0_0_PS.ctf:mrc 24808.754143 25108.057744   232.798828   138.834424     0.062880     5.269835     0.692870     -0.00884     -0.03524    85.184513     -1.85787     -4.63360     1.529015 
frames/TS_43_001_3.0.mrc           10     3.000130    85.000000     3.000000     -2.50000 MotionCorr/job002/frames/TS_43_001_3_0_PS.mrc MotionCorr/job002/frames/TS_43_001_3_0_EVN.mrc MotionCorr/job002/frames/TS_43_001_3_0_ODD.mrc MotionCorr/job002/frames/TS_43_001_3_0.mrc MotionCorr/job002/frames/TS_43_001_3_0.star     3.184465     0.000000     3.184465 CtfFind/job003/frames/TS_43_001_3_0_PS.ctf:mrc 24754.425100 25087.590281   178.857422   134.837273     0.064948     5.688076     0.706130     0.001806     3.003707    85.188544     0.515308    -24.61688     1.529739 
frames/TS_43_004_6.0.mrc           10     5.999270    85.000000    12.000000     -2.50000 MotionCorr/job002/frames/TS_43_004_6_0_PS.mrc MotionCorr/job002/frames/TS_43_004_6_0_EVN.mrc MotionCorr/job002/frames/TS_43_004_6_0_ODD.mrc MotionCorr/job002/frames/TS_43_004_6_0.mrc MotionCorr/job002/frames/TS_43_004_6_0.star     2.978147     0.000000     2.978147 CtfFind/job003/frames/TS_43_004_6_0_PS.ctf:mrc 24771.389529 25097.030116   282.867188   134.786095     0.076066     5.826810     0.567600     0.009543     6.066136    85.196031     -2.29952    -38.61703     1.624837 
frames/TS_43_005_9.0.mrc           10     8.998400    85.000000    15.000000     -2.50000 MotionCorr/job002/frames/TS_43_005_9_0_PS.mrc MotionCorr/job002/frames/TS_43_005_9_0_EVN.mrc MotionCorr/job002/frames/TS_43_005_9_0_ODD.mrc MotionCorr/job002/frames/TS_43_005_9_0.mrc MotionCorr/job002/frames/TS_43_005_9_0.star     3.477681     0.000000     3.477681 CtfFind/job003/frames/TS_43_005_9_0_PS.ctf:mrc 24839.423218 25172.887588   166.478516   138.682342     0.070367     5.923120     0.569470     0.015592     9.079174    85.201916     -0.53169    -23.82026     1.646388 
frames/TS_43_008_12.0.mrc           10    11.999000    85.000000    24.000000     -2.50000 MotionCorr/job002/frames/TS_43_008_12_0_PS.mrc MotionCorr/job002/frames/TS_43_008_12_0_EVN.mrc MotionCorr/job002/frames/TS_43_008_12_0_ODD.mrc MotionCorr/job002/frames/TS_43_008_12_0.mrc MotionCorr/job002/frames/TS_43_008_12_0.star     3.335631     0.000000     3.335631 CtfFind/job003/frames/TS_43_008_12_0_PS.ctf:mrc 24846.247549 25112.867957   343.832031   135.337280     0.074413     6.515432     0.543050     0.016564    12.115389    85.209302     -1.69723    -39.82762     1.568268 
frames/TS_43_009_15.0.mrc           10    15.000200    85.000000    27.000000     -2.50000 MotionCorr/job002/frames/TS_43_009_15_0_PS.mrc MotionCorr/job002/frames/TS_43_009_15_0_EVN.mrc MotionCorr/job002/frames/TS_43_009_15_0_ODD.mrc MotionCorr/job002/frames/TS_43_009_15_0.mrc MotionCorr/job002/frames/TS_43_009_15_0.star     3.416277     0.000000     3.416277 CtfFind/job003/frames/TS_43_009_15_0_PS.ctf:mrc 24692.579586 25101.410174   392.593750   130.533851     0.086109     6.456735     0.724480     0.025444    15.116568    85.208683     -4.18419    -21.89016     1.511501 
frames/TS_43_012_18.0.mrc           10    18.000800    85.000000    36.000000     -2.50000 MotionCorr/job002/frames/TS_43_012_18_0_PS.mrc MotionCorr/job002/frames/TS_43_012_18_0_EVN.mrc MotionCorr/job002/frames/TS_43_012_18_0_ODD.mrc MotionCorr/job002/frames/TS_43_012_18_0.mrc MotionCorr/job002/frames/TS_43_012_18_0.star     3.552104     0.000000     3.552104 CtfFind/job003/frames/TS_43_012_18_0_PS.ctf:mrc 24637.358109 25106.656050   227.203125   134.232946     0.083819     6.891323     0.691180     0.030475    18.139819    85.215560     -4.11047    -44.36783     1.412102 
frames/TS_43_013_21.0.mrc           10    20.999900    85.000000    39.000000     -2.50000 MotionCorr/job002/frames/TS_43_013_21_0_PS.mrc MotionCorr/job002/frames/TS_43_013_21_0_EVN.mrc MotionCorr/job002/frames/TS_43_013_21_0_ODD.mrc MotionCorr/job002/frames/TS_43_013_21_0.mrc MotionCorr/job002/frames/TS_43_013_21_0.star     3.772947     0.000000     3.772947 CtfFind/job003/frames/TS_43_013_21_0_PS.ctf:mrc 24895.372165 25028.433148   616.460938   127.480071     0.071382     7.313241     0.628430     0.083847    21.157393    85.234566     -5.69593    -43.99241     1.369193 
frames/TS_43_016_24.0.mrc           10    23.999600    85.000000    48.000000     -2.50000 MotionCorr/job002/frames/TS_43_016_24_0_PS.mrc MotionCorr/job002/frames/TS_43_016_24_0_EVN.mrc MotionCorr/job002/frames/TS_43_016_24_0_ODD.mrc MotionCorr/job002/frames/TS_43_016_24_0.mrc MotionCorr/job002/frames/TS_43_016_24_0.star     3.618342     0.000000     3.618342 CtfFind/job003/frames/TS_43_016_24_0_PS.ctf:mrc 24702.032239 25188.901168   170.056641   142.712009     0.064698     7.166976     0.649240     0.101555    24.181310    85.253063     -9.12986    -42.31471     1.327848 
frames/TS_43_017_27.0.mrc           10    26.999700    85.000000    51.000000     -2.50000 MotionCorr/job002/frames/TS_43_017_27_0_PS.mrc MotionCorr/job002/frames/TS_43_017_27_0_EVN.mrc MotionCorr/job002/frames/TS_43_017_27_0_ODD.mrc MotionCorr/job002/frames/TS_43_017_27_0.mrc MotionCorr/job002/frames/TS_43_017_27_0.star     3.617766     0.000000     3.617766 CtfFind/job003/frames/TS_43_017_27_0_PS.ctf:mrc 24412.321629 25419.576305   420.746094   162.823180     0.081374     8.052782     0.950310     0.089504    27.180627    85.262038     -8.52530    -34.29100     1.242439 
frames/TS_43_020_30.0.mrc           10    29.999800    85.000000    60.000000     -2.50000 MotionCorr/job002/frames/TS_43_020_30_0_PS.mrc MotionCorr/job002/frames/TS_43_020_30_0_EVN.mrc MotionCorr/job002/frames/TS_43_020_30_0_ODD.mrc MotionCorr/job002/frames/TS_43_020_30_0.mrc MotionCorr/job002/frames/TS_43_020_30_0.star     4.117562     0.000000     4.117562 CtfFind/job003/frames/TS_43_020_30_0_PS.ctf:mrc 24790.539154 24999.497805   119.605469   132.654011     0.086438     9.188430     0.669700     0.099750    30.148072    85.264147    -12.98410    -43.16495     1.168185 
frames/TS_43_021_33.0.mrc           10    33.000000    85.000000    63.000000     -2.50000 MotionCorr/job002/frames/TS_43_021_33_0_PS.mrc MotionCorr/job002/frames/TS_43_021_33_0_EVN.mrc MotionCorr/job002/frames/TS_43_021_33_0_ODD.mrc MotionCorr/job002/frames/TS_43_021_33_0.mrc MotionCorr/job002/frames/TS_43_021_33_0.star     4.916295     0.000000     4.916295 CtfFind/job003/frames/TS_43_021_33_0_PS.ctf:mrc 24139.797310 25059.415545   100.339844   136.724415     0.070019     8.740214     0.724740     0.116035    33.186973    85.278245     -8.34405    -31.09662     1.204807 
frames/TS_43_024_36.0.mrc           10    35.999600    85.000000    72.000000     -2.50000 MotionCorr/job002/frames/TS_43_024_36_0_PS.mrc MotionCorr/job002/frames/TS_43_024_36_0_EVN.mrc MotionCorr/job002/frames/TS_43_024_36_0_ODD.mrc MotionCorr/job002/frames/TS_43_024_36_0.mrc MotionCorr/job002/frames/TS_43_024_36_0.star     5.823372     0.000000     5.823372 CtfFind/job003/frames/TS_43_024_36_0_PS.ctf:mrc 24039.785113 25001.479221   271.441406   106.991998     0.112629     9.685102     0.672340     0.124346    36.174113    85.299322    -17.34931    -52.97441     1.035574 
frames/TS_43_025_39.0.mrc           10    38.999200    85.000000    75.000000     -2.50000 MotionCorr/job002/frames/TS_43_025_39_0_PS.mrc MotionCorr/job002/frames/TS_43_025_39_0_EVN.mrc MotionCorr/job002/frames/TS_43_025_39_0_ODD.mrc MotionCorr/job002/frames/TS_43_025_39_0.mrc MotionCorr/job002/frames/TS_43_025_39_0.star     4.309618     0.000000     4.309618 CtfFind/job003/frames/TS_43_025_39_0_PS.ctf:mrc 24658.244171 24809.014005   266.675781   -178.08115     0.097874     8.958720     0.485110     0.153034    39.211748    85.302782     -4.66745    -29.85283     1.013562 
frames/TS_43_028_42.0.mrc           10    41.999400    85.000000    84.000000     -2.50000 MotionCorr/job002/frames/TS_43_028_42_0_PS.mrc MotionCorr/job002/frames/TS_43_028_42_0_EVN.mrc MotionCorr/job002/frames/TS_43_028_42_0_ODD.mrc MotionCorr/job002/frames/TS_43_028_42_0.mrc MotionCorr/job002/frames/TS_43_028_42_0.star     4.040794     0.000000     4.040794 CtfFind/job003/frames/TS_43_028_42_0_PS.ctf:mrc 24544.468472 25707.263383   116.673828   164.573307     0.082902     9.555968     0.634540     0.202879    42.188903    85.341153    -17.90360    -50.61428     0.955655 
frames/TS_43_029_45.0.mrc           10    44.999000    85.000000    87.000000     -2.50000 MotionCorr/job002/frames/TS_43_029_45_0_PS.mrc MotionCorr/job002/frames/TS_43_029_45_0_EVN.mrc MotionCorr/job002/frames/TS_43_029_45_0_ODD.mrc MotionCorr/job002/frames/TS_43_029_45_0.mrc MotionCorr/job002/frames/TS_43_029_45_0.star     4.307779     0.000000     4.307779 CtfFind/job003/frames/TS_43_029_45_0_PS.ctf:mrc 24788.981942 25475.741896   117.291016   137.297762     0.105520     9.817775     0.607800     0.183901    45.158445    85.343449     -3.35510    -33.78778     0.957478 
frames/TS_43_032_48.0.mrc           10    47.997100    85.000000    96.000000     -2.50000 MotionCorr/job002/frames/TS_43_032_48_0_PS.mrc MotionCorr/job002/frames/TS_43_032_48_0_EVN.mrc MotionCorr/job002/frames/TS_43_032_48_0_ODD.mrc MotionCorr/job002/frames/TS_43_032_48_0.mrc MotionCorr/job002/frames/TS_43_032_48_0.star     3.090059     0.000000     3.090059 CtfFind/job003/frames/TS_43_032_48_0_PS.ctf:mrc 24825.486080 25480.607936   178.550781   130.095276     0.157173    11.026116     0.630040     0.244775    48.170279    85.380752    -22.53027    -57.06258     0.887185 
frames/TS_43_033_51.0.mrc           10    50.996300    85.000000    99.000000     -2.50000 MotionCorr/job002/frames/TS_43_033_51_0_PS.mrc MotionCorr/job002/frames/TS_43_033_51_0_EVN.mrc MotionCorr/job002/frames/TS_43_033_51_0_ODD.mrc MotionCorr/job002/frames/TS_43_033_51_0.mrc MotionCorr/job002/frames/TS_43_033_51_0.star     5.632723     0.000000     5.632723 CtfFind/job003/frames/TS_43_033_51_0_PS.ctf:mrc 24709.475514 25452.727804   185.080078   110.949397     0.100378    11.944960     0.412290     0.255079    51.183841    85.393185     -7.65606    -34.49980     0.851020 
frames/TS_43_036_54.0.mrc           10    53.996900    85.000000   108.000000     -2.50000 MotionCorr/job002/frames/TS_43_036_54_0_PS.mrc MotionCorr/job002/frames/TS_43_036_54_0_EVN.mrc MotionCorr/job002/frames/TS_43_036_54_0_ODD.mrc MotionCorr/job002/frames/TS_43_036_54_0.mrc MotionCorr/job002/frames/TS_43_036_54_0.star     3.820902     0.000000     3.820902 CtfFind/job003/frames/TS_43_036_54_0_PS.ctf:mrc 25242.457394 25277.818188   101.689453   177.883030     0.150460    12.573642     0.488930     0.307641    54.173796    85.429545    -23.35691    -60.48915     0.807747 
frames/TS_43_037_57.0.mrc           10    56.996000    85.000000   111.000000     -2.50000 MotionCorr/job002/frames/TS_43_037_57_0_PS.mrc MotionCorr/job002/frames/TS_43_037_57_0_EVN.mrc MotionCorr/job002/frames/TS_43_037_57_0_ODD.mrc MotionCorr/job002/frames/TS_43_037_57_0.mrc MotionCorr/job002/frames/TS_43_037_57_0.star     7.472044     0.000000     7.472044 CtfFind/job003/frames/TS_43_037_57_0_PS.ctf:mrc 24854.865043 25123.309070    30.246094   139.492244     0.158437    13.272177     0.996970     0.393285    57.182303    85.503133     -9.45535    -45.93631     0.660115 
frames/TS_43_040_60.0.mrc           10    59.996200    85.000000   120.000000     -2.50000 MotionCorr/job002/frames/TS_43_040_60_0_PS.mrc MotionCorr/job002/frames/TS_43_040_60_0_EVN.mrc MotionCorr/job002/frames/TS_43_040_60_0_ODD.mrc MotionCorr/job002/frames/TS_43_040_60_0.mrc MotionCorr/job002/frames/TS_43_040_60_0.star     5.212197     0.000000     5.212197 CtfFind/job003/frames/TS_43_040_60_0_PS.ctf:mrc 25232.586367 25292.978801   119.343750   -141.98656     0.192743    15.248884     0.518320     0.444578    60.222708    85.544144    -29.19592    -80.01081     0.570520 
 
