
# version 50001

data_TS_54

loop_ 
_rlnMicrographMovieName #1 
_rlnTomoTiltMovieFrameCount #2 
_rlnTomoNominalStageTiltAngle #3 
_rlnTomoNominalTiltAxisAngle #4 
_rlnMicrographPreExposure #5 
_rlnTomoNominalDefocus #6 
_rlnCtfPowerSpectrum #7 
_rlnMicrographNameEven #8 
_rlnMicrographNameOdd #9 
_rlnMicrographName #10 
_rlnMicrographMetadata #11 
_rlnAccumMotionTotal #12 
_rlnAccumMotionEarly #13 
_rlnAccumMotionLate #14 
_rlnCtfImage #15 
_rlnDefocusU #16 
_rlnDefocusV #17 
_rlnCtfAstigmatism #18 
_rlnDefocusAngle #19 
_rlnCtfFigureOfMerit #20 
_rlnCtfMaxResolution #21 
_rlnCtfIceRingDensity #22 
_rlnTomoXTilt #23 
_rlnTomoYTilt #24 
_rlnTomoZRot #25 
_rlnTomoXShiftAngst #26 
_rlnTomoYShiftAngst #27 
_rlnCtfScalefactor #28 
frames/TS_54_039_-60.0.mrc           10    -59.99910    85.000000   117.000000     -1.50000 MotionCorr/job002/frames/TS_54_039_-60_0_PS.mrc MotionCorr/job002/frames/TS_54_039_-60_0_EVN.mrc MotionCorr/job002/frames/TS_54_039_-60_0_ODD.mrc MotionCorr/job002/frames/TS_54_039_-60_0.mrc MotionCorr/job002/frames/TS_54_039_-60_0.star    15.025143     0.000000    15.025143 CtfFind/job003/frames/TS_54_039_-60_0_PS.ctf:mrc 17897.531595 17966.157882    42.291016   173.041864     0.128431    12.573642     1.218770     1.342138    -54.57581    90.746451   -347.83416  -1041.51869     -0.15944 
frames/TS_54_038_-57.0.mrc           10    -56.99900    85.000000   114.000000     -1.50000 MotionCorr/job002/frames/TS_54_038_-57_0_PS.mrc MotionCorr/job002/frames/TS_54_038_-57_0_EVN.mrc MotionCorr/job002/frames/TS_54_038_-57_0_ODD.mrc MotionCorr/job002/frames/TS_54_038_-57_0.mrc MotionCorr/job002/frames/TS_54_038_-57_0.star    15.521387     0.000000    15.521387 CtfFind/job003/frames/TS_54_038_-57_0_PS.ctf:mrc 16616.222758 16779.417994   109.835938   153.285683     0.125754    25.000000     0.590680     0.670662    -56.35167    69.195723    83.549519   -239.82461     -0.11606 
frames/TS_54_035_-54.0.mrc           10    -53.99940    85.000000   105.000000     -1.50000 MotionCorr/job002/frames/TS_54_035_-54_0_PS.mrc MotionCorr/job002/frames/TS_54_035_-54_0_EVN.mrc MotionCorr/job002/frames/TS_54_035_-54_0_ODD.mrc MotionCorr/job002/frames/TS_54_035_-54_0.mrc MotionCorr/job002/frames/TS_54_035_-54_0.star    12.397099     0.000000    12.397099 CtfFind/job003/frames/TS_54_035_-54_0_PS.ctf:mrc 16156.633816 16254.140472    98.336914    82.486444     0.141127    25.000000     0.655740     0.892368    -53.44867    82.422846     0.040383   -164.55722     0.024507 
frames/TS_54_034_-51.0.mrc           10    -50.99930    85.000000   102.000000     -1.50000 MotionCorr/job002/frames/TS_54_034_-51_0_PS.mrc MotionCorr/job002/frames/TS_54_034_-51_0_EVN.mrc MotionCorr/job002/frames/TS_54_034_-51_0_ODD.mrc MotionCorr/job002/frames/TS_54_034_-51_0.mrc MotionCorr/job002/frames/TS_54_034_-51_0.star    12.299811     0.000000    12.299811 CtfFind/job003/frames/TS_54_034_-51_0_PS.ctf:mrc 15547.429379 15768.760651   182.346680   -152.84434     0.163578    11.559638     1.139510     -0.17561    -51.43918    84.868177    -14.38996   -119.90068     0.579532 
frames/TS_54_031_-48.0.mrc           10    -47.99960    85.000000    93.000000     -1.50000 MotionCorr/job002/frames/TS_54_031_-48_0_PS.mrc MotionCorr/job002/frames/TS_54_031_-48_0_EVN.mrc MotionCorr/job002/frames/TS_54_031_-48_0_ODD.mrc MotionCorr/job002/frames/TS_54_031_-48_0.mrc MotionCorr/job002/frames/TS_54_031_-48_0.star     9.515987     0.000000     9.515987 CtfFind/job003/frames/TS_54_031_-48_0_PS.ctf:mrc 15696.793631 16048.163772    87.428711   -176.80759     0.100363    10.539670     0.870450     -0.20399    -48.37142    84.985386     -9.41499   -107.72056     0.829458 
frames/TS_54_030_-45.0.mrc           10    -45.00000    85.000000    90.000000     -1.50000 MotionCorr/job002/frames/TS_54_030_-45_0_PS.mrc MotionCorr/job002/frames/TS_54_030_-45_0_EVN.mrc MotionCorr/job002/frames/TS_54_030_-45_0_ODD.mrc MotionCorr/job002/frames/TS_54_030_-45_0.mrc MotionCorr/job002/frames/TS_54_030_-45_0.star    10.815727     0.000000    10.815727 CtfFind/job003/frames/TS_54_030_-45_0_PS.ctf:mrc 15777.717490 15858.384310    85.271484   145.433395     0.154878    10.539670     0.768430     -0.23686    -45.40368    85.030150     -5.26647    -86.91207     0.880261 
frames/TS_54_027_-42.0.mrc           10    -42.00040    85.000000    81.000000     -1.50000 MotionCorr/job002/frames/TS_54_027_-42_0_PS.mrc MotionCorr/job002/frames/TS_54_027_-42_0_EVN.mrc MotionCorr/job002/frames/TS_54_027_-42_0_ODD.mrc MotionCorr/job002/frames/TS_54_027_-42_0.mrc MotionCorr/job002/frames/TS_54_027_-42_0.star     8.590184     0.000000     8.590184 CtfFind/job003/frames/TS_54_027_-42_0_PS.ctf:mrc 15724.717757 16216.111905   166.293945   173.405676     0.125000    10.539670     0.725910     -0.21374    -42.38813    85.016469     -0.77871    -69.04542     0.874098 
frames/TS_54_026_-39.0.mrc           10    -39.00020    85.000000    78.000000     -1.50000 MotionCorr/job002/frames/TS_54_026_-39_0_PS.mrc MotionCorr/job002/frames/TS_54_026_-39_0_EVN.mrc MotionCorr/job002/frames/TS_54_026_-39_0_ODD.mrc MotionCorr/job002/frames/TS_54_026_-39_0.mrc MotionCorr/job002/frames/TS_54_026_-39_0.star     8.366590     0.000000     8.366590 CtfFind/job003/frames/TS_54_026_-39_0_PS.ctf:mrc 15489.682188 15789.465098   143.519531   137.728216     0.117415    11.559638     0.662560     -0.26812    -39.42668    85.070135     6.736009    -52.19083     0.814669 
frames/TS_54_023_-36.0.mrc           10    -36.00010    85.000000    69.000000     -1.50000 MotionCorr/job002/frames/TS_54_023_-36_0_PS.mrc MotionCorr/job002/frames/TS_54_023_-36_0_EVN.mrc MotionCorr/job002/frames/TS_54_023_-36_0_ODD.mrc MotionCorr/job002/frames/TS_54_023_-36_0.mrc MotionCorr/job002/frames/TS_54_023_-36_0.star     7.357381     0.000000     7.357381 CtfFind/job003/frames/TS_54_023_-36_0_PS.ctf:mrc 14873.784181 15616.297888   288.270508   -150.87870     0.090527     9.817775     0.500270     -0.18052    -36.36636    85.039866     -3.79102    -55.25384     1.051169 
frames/TS_54_022_-33.0.mrc           10    -32.99950    85.000000    66.000000     -1.50000 MotionCorr/job002/frames/TS_54_022_-33_0_PS.mrc MotionCorr/job002/frames/TS_54_022_-33_0_EVN.mrc MotionCorr/job002/frames/TS_54_022_-33_0_ODD.mrc MotionCorr/job002/frames/TS_54_022_-33_0.mrc MotionCorr/job002/frames/TS_54_022_-33_0.star     8.160680     0.000000     8.160680 CtfFind/job003/frames/TS_54_022_-33_0_PS.ctf:mrc 15000.184376 15718.968498   294.715820   -174.18238     0.103930     8.532114     0.868000     -0.19897    -33.36864    85.043958     -6.51206    -46.53010     1.047686 
frames/TS_54_019_-30.0.mrc           10    -30.00030    85.000000    57.000000     -1.50000 MotionCorr/job002/frames/TS_54_019_-30_0_PS.mrc MotionCorr/job002/frames/TS_54_019_-30_0_EVN.mrc MotionCorr/job002/frames/TS_54_019_-30_0_ODD.mrc MotionCorr/job002/frames/TS_54_019_-30_0.mrc MotionCorr/job002/frames/TS_54_019_-30_0.star     6.365004     0.000000     6.365004 CtfFind/job003/frames/TS_54_019_-30_0_PS.ctf:mrc 15186.429641 15272.682576   301.435547    59.598993     0.092739     9.430231     0.658210     -0.15860    -30.33265    85.043007    -11.48988    -41.81905     1.132876 
frames/TS_54_018_-27.0.mrc           10    -27.00170    85.000000    54.000000     -1.50000 MotionCorr/job002/frames/TS_54_018_-27_0_PS.mrc MotionCorr/job002/frames/TS_54_018_-27_0_EVN.mrc MotionCorr/job002/frames/TS_54_018_-27_0_ODD.mrc MotionCorr/job002/frames/TS_54_018_-27_0.mrc MotionCorr/job002/frames/TS_54_018_-27_0.star     7.058289     0.000000     7.058289 CtfFind/job003/frames/TS_54_018_-27_0_PS.ctf:mrc 14935.579074 15420.125187   325.508789   -166.54296     0.086891     9.072121     0.527930     -0.19262    -27.33391    85.061068    -17.67531    -37.31842     1.152120 
frames/TS_54_015_-24.0.mrc           10    -24.00010    85.000000    45.000000     -1.50000 MotionCorr/job002/frames/TS_54_015_-24_0_PS.mrc MotionCorr/job002/frames/TS_54_015_-24_0_EVN.mrc MotionCorr/job002/frames/TS_54_015_-24_0_ODD.mrc MotionCorr/job002/frames/TS_54_015_-24_0.mrc MotionCorr/job002/frames/TS_54_015_-24_0.star     6.120384     0.000000     6.120384 CtfFind/job003/frames/TS_54_015_-24_0_PS.ctf:mrc 15050.680250 15218.655068   771.327148   117.977566     0.071205     7.388635     0.564480     -0.19476    -24.27297    85.066984    -20.31444    -35.94605     1.403078 
frames/TS_54_014_-21.0.mrc           10    -21.00040    85.000000    42.000000     -1.50000 MotionCorr/job002/frames/TS_54_014_-21_0_PS.mrc MotionCorr/job002/frames/TS_54_014_-21_0_EVN.mrc MotionCorr/job002/frames/TS_54_014_-21_0_ODD.mrc MotionCorr/job002/frames/TS_54_014_-21_0.mrc MotionCorr/job002/frames/TS_54_014_-21_0.star     5.664473     0.000000     5.664473 CtfFind/job003/frames/TS_54_014_-21_0_PS.ctf:mrc 14639.242705 15457.820384   199.931641   140.776052     0.075342     7.963306     0.662400     -0.19374    -21.20171    85.068988    -23.44454    -36.61737     1.316668 
frames/TS_54_011_-18.0.mrc           10    -18.00180    85.000000    33.000000     -1.50000 MotionCorr/job002/frames/TS_54_011_-18_0_PS.mrc MotionCorr/job002/frames/TS_54_011_-18_0_EVN.mrc MotionCorr/job002/frames/TS_54_011_-18_0_ODD.mrc MotionCorr/job002/frames/TS_54_011_-18_0.mrc MotionCorr/job002/frames/TS_54_011_-18_0.star     5.176144     0.000000     5.176144 CtfFind/job003/frames/TS_54_011_-18_0_PS.ctf:mrc 15209.258653 15377.673674     0.000000   141.013578     0.088412     6.958229     0.985870     -0.18075    -18.11966    85.072717    -17.46410    -23.03232     1.462353 
frames/TS_54_010_-15.0.mrc           10    -15.00320    85.000000    30.000000     -1.50000 MotionCorr/job002/frames/TS_54_010_-15_0_PS.mrc MotionCorr/job002/frames/TS_54_010_-15_0_EVN.mrc MotionCorr/job002/frames/TS_54_010_-15_0_ODD.mrc MotionCorr/job002/frames/TS_54_010_-15_0.mrc MotionCorr/job002/frames/TS_54_010_-15_0.star     5.213246     0.000000     5.213246 CtfFind/job003/frames/TS_54_010_-15_0_PS.ctf:mrc 15097.680577 15289.111720    65.493164   108.115412     0.081766     6.636089     0.901650     -0.17053    -15.07842    85.077092    -20.70218    -32.06959     1.557844 
frames/TS_54_007_-12.0.mrc           10    -11.99850    85.000000    21.000000     -1.50000 MotionCorr/job002/frames/TS_54_007_-12_0_PS.mrc MotionCorr/job002/frames/TS_54_007_-12_0_EVN.mrc MotionCorr/job002/frames/TS_54_007_-12_0_ODD.mrc MotionCorr/job002/frames/TS_54_007_-12_0.mrc MotionCorr/job002/frames/TS_54_007_-12_0.star     4.194469     0.000000     4.194469 CtfFind/job003/frames/TS_54_007_-12_0_PS.ctf:mrc 15129.783323 15303.658496     0.001953   124.504677     0.097848     5.874570     0.694140     -0.17261    -12.07019    85.077278    -18.84789    -14.47668     1.779075 
frames/TS_54_006_-9.0.mrc           10     -8.99940    85.000000    18.000000     -1.50000 MotionCorr/job002/frames/TS_54_006_-9_0_PS.mrc MotionCorr/job002/frames/TS_54_006_-9_0_EVN.mrc MotionCorr/job002/frames/TS_54_006_-9_0_ODD.mrc MotionCorr/job002/frames/TS_54_006_-9_0.mrc MotionCorr/job002/frames/TS_54_006_-9_0.star     4.226744     0.000000     4.226744 CtfFind/job003/frames/TS_54_006_-9_0_PS.ctf:mrc 15011.485015 15264.913557   126.666992   130.811813     0.087386     5.429527     0.606490     -0.16687     -9.01891    85.080766    -17.97132    -26.18023     1.753700 
frames/TS_54_003_-6.0.mrc           10     -5.99876    85.000000     9.000000     -1.50000 MotionCorr/job002/frames/TS_54_003_-6_0_PS.mrc MotionCorr/job002/frames/TS_54_003_-6_0_EVN.mrc MotionCorr/job002/frames/TS_54_003_-6_0_ODD.mrc MotionCorr/job002/frames/TS_54_003_-6_0.mrc MotionCorr/job002/frames/TS_54_003_-6_0.star     4.304615     0.000000     4.304615 CtfFind/job003/frames/TS_54_003_-6_0_PS.ctf:mrc 15045.483365 15263.428120   210.468750   123.215625     0.094744     5.119268     1.053120     -0.11516     -5.99689    85.069956    -18.28408     -5.58432     1.872588 
frames/TS_54_002_-3.0.mrc           10     -2.99963    85.000000     6.000000     -1.50000 MotionCorr/job002/frames/TS_54_002_-3_0_PS.mrc MotionCorr/job002/frames/TS_54_002_-3_0_EVN.mrc MotionCorr/job002/frames/TS_54_002_-3_0_ODD.mrc MotionCorr/job002/frames/TS_54_002_-3_0.mrc MotionCorr/job002/frames/TS_54_002_-3_0.star     3.218856     0.000000     3.218856 CtfFind/job003/frames/TS_54_002_-3_0_PS.ctf:mrc 15095.497672 15317.004811   211.693359   132.930835     0.098356     5.082961     0.615130     -0.08042     -2.96142    85.070043    -22.59489    -28.80268     2.020183 
frames/TS_54_000_-0.0.mrc           10 -5.00000e-04    85.000000     0.000000     -1.50000 MotionCorr/job002/frames/TS_54_000_-0_0_PS.mrc MotionCorr/job002/frames/TS_54_000_-0_0_EVN.mrc MotionCorr/job002/frames/TS_54_000_-0_0_ODD.mrc MotionCorr/job002/frames/TS_54_000_-0_0.mrc MotionCorr/job002/frames/TS_54_000_-0_0.star     3.898448     2.142234     1.756215 CtfFind/job003/frames/TS_54_000_-0_0_PS.ctf:mrc 15132.418030 15356.229469   265.158203   130.056942     0.093887     5.119268     0.826400     -0.01150     0.047975    85.067978    -14.87923    -35.40460     2.127655 
frames/TS_54_001_3.0.mrc           10     2.999630    85.000000     3.000000     -1.50000 MotionCorr/job002/frames/TS_54_001_3_0_PS.mrc MotionCorr/job002/frames/TS_54_001_3_0_EVN.mrc MotionCorr/job002/frames/TS_54_001_3_0_ODD.mrc MotionCorr/job002/frames/TS_54_001_3_0.mrc MotionCorr/job002/frames/TS_54_001_3_0.star     2.820754     0.000000     2.820754 CtfFind/job003/frames/TS_54_001_3_0_PS.ctf:mrc 15107.895329 15351.150980   273.129883   128.395461     0.093105     5.231369     0.492000     -0.07489     3.080217    85.077838    -23.10947    -41.43547     1.956085 
frames/TS_54_004_6.0.mrc           10     5.999760    85.000000    12.000000     -1.50000 MotionCorr/job002/frames/TS_54_004_6_0_PS.mrc MotionCorr/job002/frames/TS_54_004_6_0_EVN.mrc MotionCorr/job002/frames/TS_54_004_6_0_ODD.mrc MotionCorr/job002/frames/TS_54_004_6_0.mrc MotionCorr/job002/frames/TS_54_004_6_0.star     3.085074     0.000000     3.085074 CtfFind/job003/frames/TS_54_004_6_0_PS.ctf:mrc 14972.226745 15222.229554   409.930664   134.283560     0.087902     5.156098     1.092580     -0.15440     6.117613    85.096094    -21.67083    -46.36043     1.865714 
frames/TS_54_005_9.0.mrc           10     8.999400    85.000000    15.000000     -1.50000 MotionCorr/job002/frames/TS_54_005_9_0_PS.mrc MotionCorr/job002/frames/TS_54_005_9_0_EVN.mrc MotionCorr/job002/frames/TS_54_005_9_0_ODD.mrc MotionCorr/job002/frames/TS_54_005_9_0.mrc MotionCorr/job002/frames/TS_54_005_9_0.star     2.978818     0.000000     2.978818 CtfFind/job003/frames/TS_54_005_9_0_PS.ctf:mrc 14995.749937 15267.713616   461.936523   123.238227     0.103138     5.269835     0.700960     -0.17915     9.133926    85.105416    -19.50530    -33.98158     1.843509 
frames/TS_54_008_12.0.mrc           10    12.000500    85.000000    24.000000     -1.50000 MotionCorr/job002/frames/TS_54_008_12_0_PS.mrc MotionCorr/job002/frames/TS_54_008_12_0_EVN.mrc MotionCorr/job002/frames/TS_54_008_12_0_ODD.mrc MotionCorr/job002/frames/TS_54_008_12_0.mrc MotionCorr/job002/frames/TS_54_008_12_0.star     3.162589     0.000000     3.162589 CtfFind/job003/frames/TS_54_008_12_0_PS.ctf:mrc 14974.978247 15198.584523    99.137695   129.283385     0.076736     6.178427     0.835920     -0.21591    12.163708    85.125863    -18.95087    -42.44387     1.701766 
frames/TS_54_009_15.0.mrc           10    15.000200    85.000000    27.000000     -1.50000 MotionCorr/job002/frames/TS_54_009_15_0_PS.mrc MotionCorr/job002/frames/TS_54_009_15_0_EVN.mrc MotionCorr/job002/frames/TS_54_009_15_0_ODD.mrc MotionCorr/job002/frames/TS_54_009_15_0.mrc MotionCorr/job002/frames/TS_54_009_15_0.star     3.562077     0.000000     3.562077 CtfFind/job003/frames/TS_54_009_15_0_PS.ctf:mrc 14930.787094 15297.105642   238.048828   129.910318     0.093326     6.232153     1.033810     -0.20306    15.140927    85.135400    -15.67603    -26.26265     1.724526 
frames/TS_54_012_18.0.mrc           10    18.000800    85.000000    36.000000     -1.50000 MotionCorr/job002/frames/TS_54_012_18_0_PS.mrc MotionCorr/job002/frames/TS_54_012_18_0_EVN.mrc MotionCorr/job002/frames/TS_54_012_18_0_ODD.mrc MotionCorr/job002/frames/TS_54_012_18_0.mrc MotionCorr/job002/frames/TS_54_012_18_0.star     4.641988     0.000000     4.641988 CtfFind/job003/frames/TS_54_012_18_0_PS.ctf:mrc 15021.146754 15255.358572   369.802734   136.111569     0.075756     6.761298     0.585740     -0.19231    18.168048    85.153850    -13.80038    -35.96943     1.469760 
frames/TS_54_013_21.0.mrc           10    21.000400    85.000000    39.000000     -1.50000 MotionCorr/job002/frames/TS_54_013_21_0_PS.mrc MotionCorr/job002/frames/TS_54_013_21_0_EVN.mrc MotionCorr/job002/frames/TS_54_013_21_0_ODD.mrc MotionCorr/job002/frames/TS_54_013_21_0.mrc MotionCorr/job002/frames/TS_54_013_21_0.star     3.758693     0.000000     3.758693 CtfFind/job003/frames/TS_54_013_21_0_PS.ctf:mrc 15020.916120 15354.598214   339.397461   177.537941     0.069856     6.515432     0.798500     -0.23615    21.111692    85.151434    -10.84760    -22.03357     1.317696 
frames/TS_54_016_24.0.mrc           10    24.000100    85.000000    48.000000     -1.50000 MotionCorr/job002/frames/TS_54_016_24_0_PS.mrc MotionCorr/job002/frames/TS_54_016_24_0_EVN.mrc MotionCorr/job002/frames/TS_54_016_24_0_ODD.mrc MotionCorr/job002/frames/TS_54_016_24_0.mrc MotionCorr/job002/frames/TS_54_016_24_0.star     5.241663     0.000000     5.241663 CtfFind/job003/frames/TS_54_016_24_0_PS.ctf:mrc 14384.516709 15029.761474   393.947266   -174.15757     0.088287     7.388635     0.645080     -0.25616    24.112788    85.151963    -11.27790    -34.50877     1.268972 
frames/TS_54_017_27.0.mrc           10    26.999700    85.000000    51.000000     -1.50000 MotionCorr/job002/frames/TS_54_017_27_0_PS.mrc MotionCorr/job002/frames/TS_54_017_27_0_EVN.mrc MotionCorr/job002/frames/TS_54_017_27_0_ODD.mrc MotionCorr/job002/frames/TS_54_017_27_0.mrc MotionCorr/job002/frames/TS_54_017_27_0.star     4.953899     0.000000     4.953899 CtfFind/job003/frames/TS_54_017_27_0_PS.ctf:mrc 14943.499458 15625.172696    88.263672   133.547508     0.084095     7.963306     0.643290     -0.24414    27.116380    85.166634     -9.55143    -22.16095     1.231407 
frames/TS_54_020_30.0.mrc           10    29.999300    85.000000    60.000000     -1.50000 MotionCorr/job002/frames/TS_54_020_30_0_PS.mrc MotionCorr/job002/frames/TS_54_020_30_0_EVN.mrc MotionCorr/job002/frames/TS_54_020_30_0_ODD.mrc MotionCorr/job002/frames/TS_54_020_30_0.mrc MotionCorr/job002/frames/TS_54_020_30_0.star     5.211208     0.000000     5.211208 CtfFind/job003/frames/TS_54_020_30_0_PS.ctf:mrc 14985.865816 15544.924061   444.293945   103.580051     0.091226     7.963306     0.674620     -0.25065    30.071517    85.183827    -15.31983    -31.64511     1.130106 
frames/TS_54_021_33.0.mrc           10    32.999500    85.000000    63.000000     -1.50000 MotionCorr/job002/frames/TS_54_021_33_0_PS.mrc MotionCorr/job002/frames/TS_54_021_33_0_EVN.mrc MotionCorr/job002/frames/TS_54_021_33_0_ODD.mrc MotionCorr/job002/frames/TS_54_021_33_0.mrc MotionCorr/job002/frames/TS_54_021_33_0.star     5.540879     0.000000     5.540879 CtfFind/job003/frames/TS_54_021_33_0_PS.ctf:mrc 14938.657904 15515.332510   117.846680   149.352660     0.070125     9.307761     1.282160     -0.27377    33.050236    85.181405     -9.03702    -15.30247     0.998725 
frames/TS_54_024_36.0.mrc           10    36.000100    85.000000    72.000000     -1.50000 MotionCorr/job002/frames/TS_54_024_36_0_PS.mrc MotionCorr/job002/frames/TS_54_024_36_0_EVN.mrc MotionCorr/job002/frames/TS_54_024_36_0_ODD.mrc MotionCorr/job002/frames/TS_54_024_36_0.mrc MotionCorr/job002/frames/TS_54_024_36_0.star     6.820884     0.000000     6.820884 CtfFind/job003/frames/TS_54_024_36_0_PS.ctf:mrc 15193.436331 15856.670354   117.241211   -144.67712     0.119576     9.555968     0.611340     -0.35186    36.031895    85.169150    -11.71296    -37.18221     1.103344 
frames/TS_54_025_39.0.mrc           10    38.999200    85.000000    75.000000     -1.50000 MotionCorr/job002/frames/TS_54_025_39_0_PS.mrc MotionCorr/job002/frames/TS_54_025_39_0_EVN.mrc MotionCorr/job002/frames/TS_54_025_39_0_ODD.mrc MotionCorr/job002/frames/TS_54_025_39_0.mrc MotionCorr/job002/frames/TS_54_025_39_0.star     7.490082     0.000000     7.490082 CtfFind/job003/frames/TS_54_025_39_0_PS.ctf:mrc 15247.133590 15907.391664     0.000000   125.455026     0.117302    10.094332     0.737300     -0.25252    39.068728    85.190988     -1.21358    -18.55249     1.026278 
frames/TS_54_028_42.0.mrc           10    41.996900    85.000000    84.000000     -1.50000 MotionCorr/job002/frames/TS_54_028_42_0_PS.mrc MotionCorr/job002/frames/TS_54_028_42_0_EVN.mrc MotionCorr/job002/frames/TS_54_028_42_0_ODD.mrc MotionCorr/job002/frames/TS_54_028_42_0.mrc MotionCorr/job002/frames/TS_54_028_42_0.star     8.404922     0.000000     8.404922 CtfFind/job003/frames/TS_54_028_42_0_PS.ctf:mrc 15220.597371 15781.578767   341.065430   122.412416     0.121007    10.696979     0.713250     -0.33245    42.031472    85.212273    -15.03088    -30.52450     0.920572 
frames/TS_54_029_45.0.mrc           10    44.997500    85.000000    87.000000     -1.50000 MotionCorr/job002/frames/TS_54_029_45_0_PS.mrc MotionCorr/job002/frames/TS_54_029_45_0_EVN.mrc MotionCorr/job002/frames/TS_54_029_45_0_ODD.mrc MotionCorr/job002/frames/TS_54_029_45_0.mrc MotionCorr/job002/frames/TS_54_029_45_0.star     8.971955     0.000000     8.971955 CtfFind/job003/frames/TS_54_029_45_0_PS.ctf:mrc 14746.684004 14905.803811    99.777344   138.140501     0.145571    11.376152     0.548480     -0.25711    45.000146    85.273757     2.638370    -19.62873     0.794044 
frames/TS_54_032_48.0.mrc           10    47.998100    85.000000    96.000000     -1.50000 MotionCorr/job002/frames/TS_54_032_48_0_PS.mrc MotionCorr/job002/frames/TS_54_032_48_0_EVN.mrc MotionCorr/job002/frames/TS_54_032_48_0_ODD.mrc MotionCorr/job002/frames/TS_54_032_48_0.mrc MotionCorr/job002/frames/TS_54_032_48_0.star     7.462951     0.000000     7.462951 CtfFind/job003/frames/TS_54_032_48_0_PS.ctf:mrc 14628.904606 14804.963766    99.599609   144.070824     0.110570    11.198400     0.608910     -0.28670    47.920861    85.307285    -20.25771    -38.02144     0.737743 
frames/TS_54_033_51.0.mrc           10    50.996300    85.000000    99.000000     -1.50000 MotionCorr/job002/frames/TS_54_033_51_0_PS.mrc MotionCorr/job002/frames/TS_54_033_51_0_EVN.mrc MotionCorr/job002/frames/TS_54_033_51_0_ODD.mrc MotionCorr/job002/frames/TS_54_033_51_0.mrc MotionCorr/job002/frames/TS_54_033_51_0.star     9.473860     0.000000     9.473860 CtfFind/job003/frames/TS_54_033_51_0_PS.ctf:mrc 15292.580305 15453.437049    91.287109   162.367201     0.127937    11.198400     0.528160     -0.36306    50.951322    85.263575     -4.07630    -35.97033     0.675736 
frames/TS_54_036_54.0.mrc           10    53.997400    85.000000   108.000000     -1.50000 MotionCorr/job002/frames/TS_54_036_54_0_PS.mrc MotionCorr/job002/frames/TS_54_036_54_0_EVN.mrc MotionCorr/job002/frames/TS_54_036_54_0_ODD.mrc MotionCorr/job002/frames/TS_54_036_54_0.mrc MotionCorr/job002/frames/TS_54_036_54_0.star    10.354688     0.000000    10.354688 CtfFind/job003/frames/TS_54_036_54_0_PS.ctf:mrc 15134.277439 15246.370651   102.067383   161.182850     0.132164    25.000000     1.123490     -0.53561    53.856972    85.183474    -28.59176    -51.38719     0.688479 
frames/TS_54_037_57.0.mrc           10    56.996500    85.000000   111.000000     -1.50000 MotionCorr/job002/frames/TS_54_037_57_0_PS.mrc MotionCorr/job002/frames/TS_54_037_57_0_EVN.mrc MotionCorr/job002/frames/TS_54_037_57_0_ODD.mrc MotionCorr/job002/frames/TS_54_037_57_0.mrc MotionCorr/job002/frames/TS_54_037_57_0.star    11.211188     0.000000    11.211188 CtfFind/job003/frames/TS_54_037_57_0_PS.ctf:mrc 14893.931923 14918.003975    44.361328   164.582996     0.127873    10.539670     0.606530     -0.28097    56.888412    85.357656    -14.16906    -35.88643     0.698603 
frames/TS_54_040_60.0.mrc           10    59.997200    85.000000   120.000000     -1.50000 MotionCorr/job002/frames/TS_54_040_60_0_PS.mrc MotionCorr/job002/frames/TS_54_040_60_0_EVN.mrc MotionCorr/job002/frames/TS_54_040_60_0_ODD.mrc MotionCorr/job002/frames/TS_54_040_60_0.mrc MotionCorr/job002/frames/TS_54_040_60_0.star     9.814438     0.000000     9.814438 CtfFind/job003/frames/TS_54_040_60_0_PS.ctf:mrc 15609.969764 15892.478993    83.993164   -163.88824     0.177517    25.000000     0.672730     -0.54634    59.800546    85.239029    -28.73264    -51.41654     0.646458 
 
