
# version 50001

data_TS_03

loop_ 
_rlnMicrographMovieName #1 
_rlnTomoTiltMovieFrameCount #2 
_rlnTomoNominalStageTiltAngle #3 
_rlnTomoNominalTiltAxisAngle #4 
_rlnMicrographPreExposure #5 
_rlnTomoNominalDefocus #6 
_rlnCtfPowerSpectrum #7 
_rlnMicrographNameEven #8 
_rlnMicrographNameOdd #9 
_rlnMicrographName #10 
_rlnMicrographMetadata #11 
_rlnAccumMotionTotal #12 
_rlnAccumMotionEarly #13 
_rlnAccumMotionLate #14 
_rlnCtfImage #15 
_rlnDefocusU #16 
_rlnDefocusV #17 
_rlnCtfAstigmatism #18 
_rlnDefocusAngle #19 
_rlnCtfFigureOfMerit #20 
_rlnCtfMaxResolution #21 
_rlnCtfIceRingDensity #22 
_rlnTomoXTilt #23 
_rlnTomoYTilt #24 
_rlnTomoZRot #25 
_rlnTomoXShiftAngst #26 
_rlnTomoYShiftAngst #27 
_rlnCtfScalefactor #28 
frames/TS_03_038_-57.0.mrc            8    -56.99900    85.000000   114.000000     -1.50000 MotionCorr/job002/frames/TS_03_038_-57_0_PS.mrc MotionCorr/job002/frames/TS_03_038_-57_0_EVN.mrc MotionCorr/job002/frames/TS_03_038_-57_0_ODD.mrc MotionCorr/job002/frames/TS_03_038_-57_0.mrc MotionCorr/job002/frames/TS_03_038_-57_0.star    96.111993     0.000000    96.111993 CtfFind/job003/frames/TS_03_038_-57_0_PS.ctf:mrc 15733.016798 16126.722454    91.772461   133.014810     0.015304    25.000000     0.530370     -0.15165    -57.19614    85.212342   -238.62823   -133.21788     0.428556 
frames/TS_03_035_-54.0.mrc            8    -53.99890    85.000000   105.000000     -1.50000 MotionCorr/job002/frames/TS_03_035_-54_0_PS.mrc MotionCorr/job002/frames/TS_03_035_-54_0_EVN.mrc MotionCorr/job002/frames/TS_03_035_-54_0_ODD.mrc MotionCorr/job002/frames/TS_03_035_-54_0.mrc MotionCorr/job002/frames/TS_03_035_-54_0.star    39.495946     0.000000    39.495946 CtfFind/job003/frames/TS_03_035_-54_0_PS.ctf:mrc 14789.048385 15363.106682    57.083984   126.051903     0.047231    25.000000     0.541930     -0.14544    -54.13999    85.227850    -62.25230   -110.56432     0.582374 
frames/TS_03_034_-51.0.mrc            8    -50.99930    85.000000   102.000000     -1.50000 MotionCorr/job002/frames/TS_03_034_-51_0_PS.mrc MotionCorr/job002/frames/TS_03_034_-51_0_EVN.mrc MotionCorr/job002/frames/TS_03_034_-51_0_ODD.mrc MotionCorr/job002/frames/TS_03_034_-51_0.mrc MotionCorr/job002/frames/TS_03_034_-51_0.star     8.906427     0.000000     8.906427 CtfFind/job003/frames/TS_03_034_-51_0_PS.ctf:mrc 12492.017567 13726.133527   539.439453   139.334072     0.074001    25.000000     0.540480     -0.23166    -51.15537    85.240092    15.746789    -53.89500     0.630590 
frames/TS_03_031_-48.0.mrc            8    -47.99910    85.000000    93.000000     -1.50000 MotionCorr/job002/frames/TS_03_031_-48_0_PS.mrc MotionCorr/job002/frames/TS_03_031_-48_0_EVN.mrc MotionCorr/job002/frames/TS_03_031_-48_0_ODD.mrc MotionCorr/job002/frames/TS_03_031_-48_0.mrc MotionCorr/job002/frames/TS_03_031_-48_0.star     5.301389     0.000000     5.301389 CtfFind/job003/frames/TS_03_031_-48_0_PS.ctf:mrc 12708.317013 13556.060916   424.787109   139.519500     0.070006     8.634910     0.616740     -0.20898    -48.13863    85.266987    17.115041    -58.31454     0.675503 
frames/TS_03_030_-45.0.mrc            8    -44.99900    85.000000    90.000000     -1.50000 MotionCorr/job002/frames/TS_03_030_-45_0_PS.mrc MotionCorr/job002/frames/TS_03_030_-45_0_EVN.mrc MotionCorr/job002/frames/TS_03_030_-45_0_ODD.mrc MotionCorr/job002/frames/TS_03_030_-45_0.mrc MotionCorr/job002/frames/TS_03_030_-45_0.star     4.361125     0.000000     4.361125 CtfFind/job003/frames/TS_03_030_-45_0_PS.ctf:mrc 13886.004265 14882.171808   521.800781   139.288381     0.079347    10.094332     0.768970     -0.11386    -45.09717    85.250583    26.834836    -24.26929     0.666636 
frames/TS_03_027_-42.0.mrc            8    -41.99940    85.000000    81.000000     -1.50000 MotionCorr/job002/frames/TS_03_027_-42_0_PS.mrc MotionCorr/job002/frames/TS_03_027_-42_0_EVN.mrc MotionCorr/job002/frames/TS_03_027_-42_0_ODD.mrc MotionCorr/job002/frames/TS_03_027_-42_0.mrc MotionCorr/job002/frames/TS_03_027_-42_0.star     3.259830     0.000000     3.259830 CtfFind/job003/frames/TS_03_027_-42_0_PS.ctf:mrc 13367.990737 14976.745526   890.588867   141.152605     0.072639     9.685102     0.694580     -0.05413    -42.16519    85.213263    20.919195    -32.50337     0.725465 
frames/TS_03_026_-39.0.mrc            8    -38.99870    85.000000    78.000000     -1.50000 MotionCorr/job002/frames/TS_03_026_-39_0_PS.mrc MotionCorr/job002/frames/TS_03_026_-39_0_EVN.mrc MotionCorr/job002/frames/TS_03_026_-39_0_ODD.mrc MotionCorr/job002/frames/TS_03_026_-39_0.mrc MotionCorr/job002/frames/TS_03_026_-39_0.star     3.213115     0.000000     3.213115 CtfFind/job003/frames/TS_03_026_-39_0_PS.ctf:mrc 14022.643368 15045.135200   603.708984   150.163194     0.087992    10.696979     0.975220     -0.09126    -39.12401    85.231378    26.295972     -3.42934     0.763770 
frames/TS_03_023_-36.0.mrc            8    -35.99860    85.000000    69.000000     -1.50000 MotionCorr/job002/frames/TS_03_023_-36_0_PS.mrc MotionCorr/job002/frames/TS_03_023_-36_0_EVN.mrc MotionCorr/job002/frames/TS_03_023_-36_0_ODD.mrc MotionCorr/job002/frames/TS_03_023_-36_0.mrc MotionCorr/job002/frames/TS_03_023_-36_0.star     3.701328     0.000000     3.701328 CtfFind/job003/frames/TS_03_023_-36_0_PS.ctf:mrc 13803.181053 14592.932332   275.329102   144.406196     0.076480     9.954133     0.493570     -0.06667    -36.09891    85.213483    18.018145    -13.13523     0.791396 
frames/TS_03_022_-33.0.mrc            8    -32.99900    85.000000    66.000000     -1.50000 MotionCorr/job002/frames/TS_03_022_-33_0_PS.mrc MotionCorr/job002/frames/TS_03_022_-33_0_EVN.mrc MotionCorr/job002/frames/TS_03_022_-33_0_ODD.mrc MotionCorr/job002/frames/TS_03_022_-33_0.mrc MotionCorr/job002/frames/TS_03_022_-33_0.star     3.010083     0.000000     3.010083 CtfFind/job003/frames/TS_03_022_-33_0_PS.ctf:mrc 13807.305897 14999.786219   693.416016   137.079934     0.085505     9.188430     0.757130     -0.08068    -33.07183    85.209129    21.325349    15.102130     0.861272 
frames/TS_03_019_-30.0.mrc            8    -29.99930    85.000000    57.000000     -1.50000 MotionCorr/job002/frames/TS_03_019_-30_0_PS.mrc MotionCorr/job002/frames/TS_03_019_-30_0_EVN.mrc MotionCorr/job002/frames/TS_03_019_-30_0_ODD.mrc MotionCorr/job002/frames/TS_03_019_-30_0.mrc MotionCorr/job002/frames/TS_03_019_-30_0.star     2.650273     0.000000     2.650273 CtfFind/job003/frames/TS_03_019_-30_0_PS.ctf:mrc 13704.539455 14937.924701   515.045898   146.008068     0.079407     8.848118     0.717920     -0.07176    -30.07610    85.230648    12.532894     4.429381     0.903884 
frames/TS_03_018_-27.0.mrc            8    -26.99870    85.000000    54.000000     -1.50000 MotionCorr/job002/frames/TS_03_018_-27_0_PS.mrc MotionCorr/job002/frames/TS_03_018_-27_0_EVN.mrc MotionCorr/job002/frames/TS_03_018_-27_0_ODD.mrc MotionCorr/job002/frames/TS_03_018_-27_0.mrc MotionCorr/job002/frames/TS_03_018_-27_0.star     2.942248     0.000000     2.942248 CtfFind/job003/frames/TS_03_018_-27_0_PS.ctf:mrc 13671.229185 14875.820613   774.749023   156.612462     0.072302     8.532114     0.897310     -0.02719    -27.06805    85.221378    17.492573    34.927986     0.923137 
frames/TS_03_015_-24.0.mrc            8    -23.99860    85.000000    45.000000     -1.50000 MotionCorr/job002/frames/TS_03_015_-24_0_PS.mrc MotionCorr/job002/frames/TS_03_015_-24_0_EVN.mrc MotionCorr/job002/frames/TS_03_015_-24_0_ODD.mrc MotionCorr/job002/frames/TS_03_015_-24_0.mrc MotionCorr/job002/frames/TS_03_015_-24_0.star     2.726784     0.000000     2.726784 CtfFind/job003/frames/TS_03_015_-24_0_PS.ctf:mrc 13765.599011 14748.624344   554.796875   144.568573     0.081781     7.026447     0.592440     -0.01555    -24.06598    85.216428    10.309575    22.366278     1.078969 
frames/TS_03_014_-21.0.mrc            8    -20.99890    85.000000    42.000000     -1.50000 MotionCorr/job002/frames/TS_03_014_-21_0_PS.mrc MotionCorr/job002/frames/TS_03_014_-21_0_EVN.mrc MotionCorr/job002/frames/TS_03_014_-21_0_ODD.mrc MotionCorr/job002/frames/TS_03_014_-21_0.mrc MotionCorr/job002/frames/TS_03_014_-21_0.star     2.414818     0.000000     2.414818 CtfFind/job003/frames/TS_03_014_-21_0_PS.ctf:mrc 14116.422246 14706.856992   566.877930   146.402322     0.080299     6.286821     0.662610     0.012392    -21.06428    85.218213    19.072530    52.729114     1.165377 
frames/TS_03_011_-18.0.mrc            8    -17.99880    85.000000    33.000000     -1.50000 MotionCorr/job002/frames/TS_03_011_-18_0_PS.mrc MotionCorr/job002/frames/TS_03_011_-18_0_EVN.mrc MotionCorr/job002/frames/TS_03_011_-18_0_ODD.mrc MotionCorr/job002/frames/TS_03_011_-18_0.mrc MotionCorr/job002/frames/TS_03_011_-18_0.star     2.602850     0.000000     2.602850 CtfFind/job003/frames/TS_03_011_-18_0_PS.ctf:mrc 14235.316972 14960.698882   726.788086   147.404080     0.079273     7.026447     0.824200     -0.00943    -18.07085    85.227912    14.265808    36.472313     1.202424 
frames/TS_03_010_-15.0.mrc            8    -14.99920    85.000000    30.000000     -1.50000 MotionCorr/job002/frames/TS_03_010_-15_0_PS.mrc MotionCorr/job002/frames/TS_03_010_-15_0_EVN.mrc MotionCorr/job002/frames/TS_03_010_-15_0_ODD.mrc MotionCorr/job002/frames/TS_03_010_-15_0.mrc MotionCorr/job002/frames/TS_03_010_-15_0.star     3.136864     0.000000     3.136864 CtfFind/job003/frames/TS_03_010_-15_0_PS.ctf:mrc 14321.377770 14770.002907   394.884766   137.791546     0.089302     6.022669     0.844510     0.009628    -15.04393    85.232232    19.436473    62.503306     1.235074 
frames/TS_03_007_-12.0.mrc            8    -11.99800    85.000000    21.000000     -1.50000 MotionCorr/job002/frames/TS_03_007_-12_0_PS.mrc MotionCorr/job002/frames/TS_03_007_-12_0_EVN.mrc MotionCorr/job002/frames/TS_03_007_-12_0_ODD.mrc MotionCorr/job002/frames/TS_03_007_-12_0.mrc MotionCorr/job002/frames/TS_03_007_-12_0.star     2.313651     0.000000     2.313651 CtfFind/job003/frames/TS_03_007_-12_0_PS.ctf:mrc 14256.892288 14832.177176   359.812500   142.613376     0.078866     5.733581     0.805790     -0.01171    -12.04341    85.239692    14.655031    53.229835     1.350208 
frames/TS_03_006_-9.0.mrc            8     -8.99890    85.000000    18.000000     -1.50000 MotionCorr/job002/frames/TS_03_006_-9_0_PS.mrc MotionCorr/job002/frames/TS_03_006_-9_0_EVN.mrc MotionCorr/job002/frames/TS_03_006_-9_0_ODD.mrc MotionCorr/job002/frames/TS_03_006_-9_0.mrc MotionCorr/job002/frames/TS_03_006_-9_0.star     2.740379     0.000000     2.740379 CtfFind/job003/frames/TS_03_006_-9_0_PS.ctf:mrc 14340.148520 14878.697364   464.789062   143.867065     0.076235     5.429527     0.739670     -0.02295     -9.02245    85.244096    18.456753    49.624046     1.411416 
frames/TS_03_003_-6.0.mrc            8     -5.99827    85.000000     9.000000     -1.50000 MotionCorr/job002/frames/TS_03_003_-6_0_PS.mrc MotionCorr/job002/frames/TS_03_003_-6_0_EVN.mrc MotionCorr/job002/frames/TS_03_003_-6_0_ODD.mrc MotionCorr/job002/frames/TS_03_003_-6_0.mrc MotionCorr/job002/frames/TS_03_003_-6_0.star     2.179822     0.000000     2.179822 CtfFind/job003/frames/TS_03_003_-6_0_PS.ctf:mrc 14391.604387 14859.900531   423.504883   144.479569     0.061769     5.193461     0.531500     -0.04383     -6.03388    85.253473    14.010738    53.473553     1.480526 
frames/TS_03_002_-3.0.mrc            8     -2.99863    85.000000     6.000000     -1.50000 MotionCorr/job002/frames/TS_03_002_-3_0_PS.mrc MotionCorr/job002/frames/TS_03_002_-3_0_EVN.mrc MotionCorr/job002/frames/TS_03_002_-3_0_ODD.mrc MotionCorr/job002/frames/TS_03_002_-3_0.mrc MotionCorr/job002/frames/TS_03_002_-3_0.star     1.817747     0.000000     1.817747 CtfFind/job003/frames/TS_03_002_-3_0_PS.ctf:mrc 14381.434821 14856.766187   554.088867   146.962341     0.066306     4.977066     0.697890     -0.05172     -3.03973    85.255775    14.486355    36.611725     1.446658 
frames/TS_03_000_0.0.mrc            8     0.001500    85.000000     0.000000     -1.50000 MotionCorr/job002/frames/TS_03_000_0_0_PS.mrc MotionCorr/job002/frames/TS_03_000_0_0_EVN.mrc MotionCorr/job002/frames/TS_03_000_0_0_ODD.mrc MotionCorr/job002/frames/TS_03_000_0_0.mrc MotionCorr/job002/frames/TS_03_000_0_0.star     4.072953     2.389154     1.683799 CtfFind/job003/frames/TS_03_000_0_0_PS.ctf:mrc 14431.751469 14917.347640   655.861328   150.681806     0.061578     4.875494     0.773580     -0.10046     -0.04106    85.264843    15.970478    50.817022     1.483320 
frames/TS_03_001_3.0.mrc            8     3.001130    85.000000     3.000000     -1.50000 MotionCorr/job002/frames/TS_03_001_3_0_PS.mrc MotionCorr/job002/frames/TS_03_001_3_0_EVN.mrc MotionCorr/job002/frames/TS_03_001_3_0_ODD.mrc MotionCorr/job002/frames/TS_03_001_3_0.mrc MotionCorr/job002/frames/TS_03_001_3_0.star     2.934302     0.000000     2.934302 CtfFind/job003/frames/TS_03_001_3_0_PS.ctf:mrc 14449.863142 14876.831035   414.947266   142.322368     0.074139     5.733581     0.409340     -0.07271     2.973418    85.271779    16.658445    69.028342     1.464797 
frames/TS_03_004_6.0.mrc            8     6.000760    85.000000    12.000000     -1.50000 MotionCorr/job002/frames/TS_03_004_6_0_PS.mrc MotionCorr/job002/frames/TS_03_004_6_0_EVN.mrc MotionCorr/job002/frames/TS_03_004_6_0_ODD.mrc MotionCorr/job002/frames/TS_03_004_6_0.mrc MotionCorr/job002/frames/TS_03_004_6_0.star     2.497861     0.000000     2.497861 CtfFind/job003/frames/TS_03_004_6_0_PS.ctf:mrc 14396.461068 14782.706481   293.609375   144.971959     0.075577     5.429527     0.752080     -0.02076     6.026423    85.272879    12.917129    44.916834     1.424074 
frames/TS_03_005_9.0.mrc            8     9.001400    85.000000    15.000000     -1.50000 MotionCorr/job002/frames/TS_03_005_9_0_PS.mrc MotionCorr/job002/frames/TS_03_005_9_0_EVN.mrc MotionCorr/job002/frames/TS_03_005_9_0_ODD.mrc MotionCorr/job002/frames/TS_03_005_9_0.mrc MotionCorr/job002/frames/TS_03_005_9_0.star     1.609453     0.000000     1.609453 CtfFind/job003/frames/TS_03_005_9_0_PS.ctf:mrc 14373.177073 14825.073712   381.895508   144.214721     0.066536     6.456735     0.729540     0.018598     9.045118    85.280865     8.407218    56.683891     1.361137 
frames/TS_03_008_12.0.mrc            8    12.000500    85.000000    24.000000     -1.50000 MotionCorr/job002/frames/TS_03_008_12_0_PS.mrc MotionCorr/job002/frames/TS_03_008_12_0_EVN.mrc MotionCorr/job002/frames/TS_03_008_12_0_ODD.mrc MotionCorr/job002/frames/TS_03_008_12_0.mrc MotionCorr/job002/frames/TS_03_008_12_0.star     3.120055     0.000000     3.120055 CtfFind/job003/frames/TS_03_008_12_0_PS.ctf:mrc 14360.621286 14849.476845   497.391602   138.862332     0.086996     6.232153     0.920330     0.015167    12.063137    85.285386     7.941668    31.844106     1.284185 
frames/TS_03_009_15.0.mrc            8    15.000700    85.000000    27.000000     -1.50000 MotionCorr/job002/frames/TS_03_009_15_0_PS.mrc MotionCorr/job002/frames/TS_03_009_15_0_EVN.mrc MotionCorr/job002/frames/TS_03_009_15_0_ODD.mrc MotionCorr/job002/frames/TS_03_009_15_0.mrc MotionCorr/job002/frames/TS_03_009_15_0.star     2.301584     0.000000     2.301584 CtfFind/job003/frames/TS_03_009_15_0_PS.ctf:mrc 14434.910908 14877.136668   196.554688   149.585078     0.071106     6.575207     0.769530     0.040996    15.055655    85.296225    10.563099    42.845473     1.251520 
frames/TS_03_012_18.0.mrc            8    18.000300    85.000000    36.000000     -1.50000 MotionCorr/job002/frames/TS_03_012_18_0_PS.mrc MotionCorr/job002/frames/TS_03_012_18_0_EVN.mrc MotionCorr/job002/frames/TS_03_012_18_0_ODD.mrc MotionCorr/job002/frames/TS_03_012_18_0.mrc MotionCorr/job002/frames/TS_03_012_18_0.star     2.646684     0.000000     2.646684 CtfFind/job003/frames/TS_03_012_18_0_PS.ctf:mrc 14388.372215 14821.211338   275.634766   145.300880     0.059765     6.761298     0.713570     0.062218    18.070678    85.308190     6.132735    23.861322     1.185668 
frames/TS_03_013_21.0.mrc            8    21.000900    85.000000    39.000000     -1.50000 MotionCorr/job002/frames/TS_03_013_21_0_PS.mrc MotionCorr/job002/frames/TS_03_013_21_0_EVN.mrc MotionCorr/job002/frames/TS_03_013_21_0_ODD.mrc MotionCorr/job002/frames/TS_03_013_21_0.mrc MotionCorr/job002/frames/TS_03_013_21_0.star     2.705364     0.000000     2.705364 CtfFind/job003/frames/TS_03_013_21_0_PS.ctf:mrc 14583.044803 14890.750383   179.557617   161.452616     0.066225     7.166976     0.886440     0.078356    21.050495    85.319601     7.673812    31.364224     1.111730 
frames/TS_03_016_24.0.mrc            8    24.000600    85.000000    48.000000     -1.50000 MotionCorr/job002/frames/TS_03_016_24_0_PS.mrc MotionCorr/job002/frames/TS_03_016_24_0_EVN.mrc MotionCorr/job002/frames/TS_03_016_24_0_ODD.mrc MotionCorr/job002/frames/TS_03_016_24_0.mrc MotionCorr/job002/frames/TS_03_016_24_0.star     2.614310     0.000000     2.614310 CtfFind/job003/frames/TS_03_016_24_0_PS.ctf:mrc 14372.616493 14914.862375   355.435547   152.041593     0.070183     7.963306     0.569710     0.077088    24.085585    85.326539     5.336333    27.816738     1.031383 
frames/TS_03_017_27.0.mrc            8    27.000700    85.000000    51.000000     -1.50000 MotionCorr/job002/frames/TS_03_017_27_0_PS.mrc MotionCorr/job002/frames/TS_03_017_27_0_EVN.mrc MotionCorr/job002/frames/TS_03_017_27_0_ODD.mrc MotionCorr/job002/frames/TS_03_017_27_0.mrc MotionCorr/job002/frames/TS_03_017_27_0.star     3.655325     0.000000     3.655325 CtfFind/job003/frames/TS_03_017_27_0_PS.ctf:mrc 14247.350536 14817.423280   483.606445   120.045597     0.065192     8.740214     1.192420     0.117920    27.059123    85.340314    10.935597    46.642994     0.952241 
frames/TS_03_020_30.0.mrc            8    30.000800    85.000000    60.000000     -1.50000 MotionCorr/job002/frames/TS_03_020_30_0_PS.mrc MotionCorr/job002/frames/TS_03_020_30_0_EVN.mrc MotionCorr/job002/frames/TS_03_020_30_0_ODD.mrc MotionCorr/job002/frames/TS_03_020_30_0.mrc MotionCorr/job002/frames/TS_03_020_30_0.star     2.856914     0.000000     2.856914 CtfFind/job003/frames/TS_03_020_30_0_PS.ctf:mrc 14535.705535 14910.290322   441.144531   134.643826     0.070988     8.532114     0.472590     0.115123    30.079934    85.365724     -3.47637    41.897188     0.934024 
frames/TS_03_021_33.0.mrc            8    33.001000    85.000000    63.000000     -1.50000 MotionCorr/job002/frames/TS_03_021_33_0_PS.mrc MotionCorr/job002/frames/TS_03_021_33_0_EVN.mrc MotionCorr/job002/frames/TS_03_021_33_0_ODD.mrc MotionCorr/job002/frames/TS_03_021_33_0.mrc MotionCorr/job002/frames/TS_03_021_33_0.star     3.391973     0.000000     3.391973 CtfFind/job003/frames/TS_03_021_33_0_PS.ctf:mrc 14366.493902 14649.240828 9.770000e-04   111.363278     0.070425     9.954133     0.465080     0.105228    33.088553    85.361174    12.558690    74.193372     0.841158 
frames/TS_03_024_36.0.mrc            8    36.000600    85.000000    72.000000     -1.50000 MotionCorr/job002/frames/TS_03_024_36_0_PS.mrc MotionCorr/job002/frames/TS_03_024_36_0_EVN.mrc MotionCorr/job002/frames/TS_03_024_36_0_ODD.mrc MotionCorr/job002/frames/TS_03_024_36_0.mrc MotionCorr/job002/frames/TS_03_024_36_0.star     3.601807     0.000000     3.601807 CtfFind/job003/frames/TS_03_024_36_0_PS.ctf:mrc 14819.518313 15318.489961   218.249023   157.898414     0.090294     8.848118     1.260370     0.177213    36.040079    85.383489     5.128052    72.123795     0.796135 
frames/TS_03_025_39.0.mrc            8    39.000700    85.000000    75.000000     -1.50000 MotionCorr/job002/frames/TS_03_025_39_0_PS.mrc MotionCorr/job002/frames/TS_03_025_39_0_EVN.mrc MotionCorr/job002/frames/TS_03_025_39_0_ODD.mrc MotionCorr/job002/frames/TS_03_025_39_0.mrc MotionCorr/job002/frames/TS_03_025_39_0.star     2.430764     0.000000     2.430764 CtfFind/job003/frames/TS_03_025_39_0_PS.ctf:mrc 14580.239106 14647.749894   131.612305   -161.85800     0.093119    11.026116     0.573320     0.179425    39.042627    85.419478    17.011781   104.418005     0.768223 
frames/TS_03_028_42.0.mrc            8    42.000900    85.000000    84.000000     -1.50000 MotionCorr/job002/frames/TS_03_028_42_0_PS.mrc MotionCorr/job002/frames/TS_03_028_42_0_EVN.mrc MotionCorr/job002/frames/TS_03_028_42_0_ODD.mrc MotionCorr/job002/frames/TS_03_028_42_0.mrc MotionCorr/job002/frames/TS_03_028_42_0.star     4.460118     0.000000     4.460118 CtfFind/job003/frames/TS_03_028_42_0_PS.ctf:mrc 14077.700612 14639.086224   210.600586   178.166058     0.087854    10.859054     0.604700     0.090335    42.072471    85.434199     -0.63299    96.527598     0.765756 
frames/TS_03_029_45.0.mrc            8    45.000500    85.000000    87.000000     -1.50000 MotionCorr/job002/frames/TS_03_029_45_0_PS.mrc MotionCorr/job002/frames/TS_03_029_45_0_EVN.mrc MotionCorr/job002/frames/TS_03_029_45_0_ODD.mrc MotionCorr/job002/frames/TS_03_029_45_0.mrc MotionCorr/job002/frames/TS_03_029_45_0.star     4.061861     0.000000     4.061861 CtfFind/job003/frames/TS_03_029_45_0_PS.ctf:mrc 14554.579955 15396.924901   159.059570   157.023252     0.144842    11.559638     0.594350     0.121041    45.056412    85.422098    17.610532   125.904426     0.621312 
frames/TS_03_032_48.0.mrc            8    47.999600    85.000000    96.000000     -1.50000 MotionCorr/job002/frames/TS_03_032_48_0_PS.mrc MotionCorr/job002/frames/TS_03_032_48_0_EVN.mrc MotionCorr/job002/frames/TS_03_032_48_0_ODD.mrc MotionCorr/job002/frames/TS_03_032_48_0.mrc MotionCorr/job002/frames/TS_03_032_48_0.star     3.930790     0.000000     3.930790 CtfFind/job003/frames/TS_03_032_48_0_PS.ctf:mrc 15101.070008 15184.716347   159.303711   148.399038     0.087733    10.094332     0.806360     0.170808    48.006885    85.489462     -1.22309   116.605460     0.576328 
frames/TS_03_033_51.0.mrc            8    50.999800    85.000000    99.000000     -1.50000 MotionCorr/job002/frames/TS_03_033_51_0_PS.mrc MotionCorr/job002/frames/TS_03_033_51_0_EVN.mrc MotionCorr/job002/frames/TS_03_033_51_0_ODD.mrc MotionCorr/job002/frames/TS_03_033_51_0.mrc MotionCorr/job002/frames/TS_03_033_51_0.star     3.402876     0.000000     3.402876 CtfFind/job003/frames/TS_03_033_51_0_PS.ctf:mrc 14503.430165 14658.871148    48.349609   126.025028     0.104601    25.000000     1.082720     0.178907    51.026212    85.526526    13.450234   146.693379     0.568128 
frames/TS_03_036_54.0.mrc            8    53.996900    85.000000   108.000000     -1.50000 MotionCorr/job002/frames/TS_03_036_54_0_PS.mrc MotionCorr/job002/frames/TS_03_036_54_0_EVN.mrc MotionCorr/job002/frames/TS_03_036_54_0_ODD.mrc MotionCorr/job002/frames/TS_03_036_54_0.mrc MotionCorr/job002/frames/TS_03_036_54_0.star     3.360161     0.000000     3.360161 CtfFind/job003/frames/TS_03_036_54_0_PS.ctf:mrc 14720.968481 15033.321775   104.427734   131.239132     0.133267    25.000000     0.507790     0.134761    54.010838    85.509404     -6.67571   139.887337     0.511961 
frames/TS_03_037_57.0.mrc            8    56.996000    85.000000   111.000000     -1.50000 MotionCorr/job002/frames/TS_03_037_57_0_PS.mrc MotionCorr/job002/frames/TS_03_037_57_0_EVN.mrc MotionCorr/job002/frames/TS_03_037_57_0_ODD.mrc MotionCorr/job002/frames/TS_03_037_57_0.mrc MotionCorr/job002/frames/TS_03_037_57_0.star     3.062455     0.000000     3.062455 CtfFind/job003/frames/TS_03_037_57_0_PS.ctf:mrc 14115.106655 14662.091980   208.624023   140.411355     0.111687     8.532114     0.553800     0.123864    56.939787    85.563793    13.653124   176.153906     0.441473 
frames/TS_03_040_60.0.mrc            8    59.998100    85.000000   120.000000     -1.50000 MotionCorr/job002/frames/TS_03_040_60_0_PS.mrc MotionCorr/job002/frames/TS_03_040_60_0_EVN.mrc MotionCorr/job002/frames/TS_03_040_60_0_ODD.mrc MotionCorr/job002/frames/TS_03_040_60_0.mrc MotionCorr/job002/frames/TS_03_040_60_0.star     4.056148     0.000000     4.056148 CtfFind/job003/frames/TS_03_040_60_0_PS.ctf:mrc 14669.119093 14996.994205    85.911133   132.018053     0.145422    25.000000     0.496110     0.231744    59.956617    85.655419     -4.97921   160.985511     0.432347 
 
