
# version 50001

data_TS_54

loop_ 
_rlnMicrographMovieName #1 
_rlnTomoTiltMovieFrameCount #2 
_rlnTomoNominalStageTiltAngle #3 
_rlnTomoNominalTiltAxisAngle #4 
_rlnMicrographPreExposure #5 
_rlnTomoNominalDefocus #6 
_rlnCtfPowerSpectrum #7 
_rlnMicrographNameEven #8 
_rlnMicrographNameOdd #9 
_rlnMicrographName #10 
_rlnMicrographMetadata #11 
_rlnAccumMotionTotal #12 
_rlnAccumMotionEarly #13 
_rlnAccumMotionLate #14 
_rlnCtfImage #15 
_rlnDefocusU #16 
_rlnDefocusV #17 
_rlnCtfAstigmatism #18 
_rlnDefocusAngle #19 
_rlnCtfFigureOfMerit #20 
_rlnCtfMaxResolution #21 
_rlnCtfIceRingDensity #22 
_rlnTomoXTilt #23 
_rlnTomoYTilt #24 
_rlnTomoZRot #25 
_rlnTomoXShiftAngst #26 
_rlnTomoYShiftAngst #27 
_rlnCtfScalefactor #28 
frames/TS_54_039_-60.0.mrc           10    -59.99910    85.000000   117.000000     -1.50000 MotionCorr/job002/frames/TS_54_039_-60_0_PS.mrc MotionCorr/job002/frames/TS_54_039_-60_0_EVN.mrc MotionCorr/job002/frames/TS_54_039_-60_0_ODD.mrc MotionCorr/job002/frames/TS_54_039_-60_0.mrc MotionCorr/job002/frames/TS_54_039_-60_0.star    15.025143     0.000000    15.025143 CtfFind/job003/frames/TS_54_039_-60_0_PS.ctf:mrc 17925.278515 17995.861023    42.291016   160.765436     0.128431    12.573642     1.218770     0.764344    -54.88361    91.203031   -350.62426  -1046.30398     -0.10078 
frames/TS_54_038_-57.0.mrc           10    -56.99900    85.000000   114.000000     -1.50000 MotionCorr/job002/frames/TS_54_038_-57_0_PS.mrc MotionCorr/job002/frames/TS_54_038_-57_0_EVN.mrc MotionCorr/job002/frames/TS_54_038_-57_0_ODD.mrc MotionCorr/job002/frames/TS_54_038_-57_0.mrc MotionCorr/job002/frames/TS_54_038_-57_0.star    15.521387     0.000000    15.521387 CtfFind/job003/frames/TS_54_038_-57_0_PS.ctf:mrc 16629.300010 16822.812759   109.835938   150.205767     0.125754    25.000000     0.590680     0.207232    -56.66895    69.196218    83.302561   -233.60521     -0.06012 
frames/TS_54_035_-54.0.mrc           10    -53.99940    85.000000   105.000000     -1.50000 MotionCorr/job002/frames/TS_54_035_-54_0_PS.mrc MotionCorr/job002/frames/TS_54_035_-54_0_EVN.mrc MotionCorr/job002/frames/TS_54_035_-54_0_ODD.mrc MotionCorr/job002/frames/TS_54_035_-54_0.mrc MotionCorr/job002/frames/TS_54_035_-54_0.star    12.397099     0.000000    12.397099 CtfFind/job003/frames/TS_54_035_-54_0_PS.ctf:mrc 16183.808337 16286.981098    98.336914    94.713484     0.141127    25.000000     0.655740     0.070982    -53.59213    83.036464     -1.57825   -170.42276     0.025574 
frames/TS_54_034_-51.0.mrc           10    -50.99930    85.000000   102.000000     -1.50000 MotionCorr/job002/frames/TS_54_034_-51_0_PS.mrc MotionCorr/job002/frames/TS_54_034_-51_0_EVN.mrc MotionCorr/job002/frames/TS_54_034_-51_0_ODD.mrc MotionCorr/job002/frames/TS_54_034_-51_0.mrc MotionCorr/job002/frames/TS_54_034_-51_0.star    12.299811     0.000000    12.299811 CtfFind/job003/frames/TS_54_034_-51_0_PS.ctf:mrc 15652.771128 15847.462741   182.346680   -151.04619     0.163578    11.559638     1.139510     -0.02618    -51.15083    84.445607    -15.40392   -124.73325     0.316730 
frames/TS_54_031_-48.0.mrc           10    -47.99960    85.000000    93.000000     -1.50000 MotionCorr/job002/frames/TS_54_031_-48_0_PS.mrc MotionCorr/job002/frames/TS_54_031_-48_0_EVN.mrc MotionCorr/job002/frames/TS_54_031_-48_0_ODD.mrc MotionCorr/job002/frames/TS_54_031_-48_0.mrc MotionCorr/job002/frames/TS_54_031_-48_0.star     9.515987     0.000000     9.515987 CtfFind/job003/frames/TS_54_031_-48_0_PS.ctf:mrc 15761.390600 16015.520766    87.428711   -178.22496     0.100363    10.539670     0.870450     -0.09823    -48.16392    84.716452    -11.47142   -113.50592     0.632337 
frames/TS_54_030_-45.0.mrc           10    -45.00000    85.000000    90.000000     -1.50000 MotionCorr/job002/frames/TS_54_030_-45_0_PS.mrc MotionCorr/job002/frames/TS_54_030_-45_0_EVN.mrc MotionCorr/job002/frames/TS_54_030_-45_0_ODD.mrc MotionCorr/job002/frames/TS_54_030_-45_0.mrc MotionCorr/job002/frames/TS_54_030_-45_0.star    10.815727     0.000000    10.815727 CtfFind/job003/frames/TS_54_030_-45_0_PS.ctf:mrc 15599.312833 15781.678929    85.271484   133.223682     0.154878    10.539670     0.768430     -0.20894    -45.21403    84.892547     -6.05632    -91.49784     0.662154 
frames/TS_54_027_-42.0.mrc           10    -42.00040    85.000000    81.000000     -1.50000 MotionCorr/job002/frames/TS_54_027_-42_0_PS.mrc MotionCorr/job002/frames/TS_54_027_-42_0_EVN.mrc MotionCorr/job002/frames/TS_54_027_-42_0_ODD.mrc MotionCorr/job002/frames/TS_54_027_-42_0.mrc MotionCorr/job002/frames/TS_54_027_-42_0.star     8.590184     0.000000     8.590184 CtfFind/job003/frames/TS_54_027_-42_0_PS.ctf:mrc 15638.218045 16008.713220   166.293945   163.785190     0.125000    10.539670     0.725910     -0.20236    -42.20247    84.966759     -1.07865    -72.03785     0.750818 
frames/TS_54_026_-39.0.mrc           10    -39.00020    85.000000    78.000000     -1.50000 MotionCorr/job002/frames/TS_54_026_-39_0_PS.mrc MotionCorr/job002/frames/TS_54_026_-39_0_EVN.mrc MotionCorr/job002/frames/TS_54_026_-39_0_ODD.mrc MotionCorr/job002/frames/TS_54_026_-39_0.mrc MotionCorr/job002/frames/TS_54_026_-39_0.star     8.366590     0.000000     8.366590 CtfFind/job003/frames/TS_54_026_-39_0_PS.ctf:mrc 15572.460014 15833.922149   143.519531   143.595269     0.117415    11.559638     0.662560     -0.17901    -39.20443    85.007749     6.500802    -54.69560     0.705971 
frames/TS_54_023_-36.0.mrc           10    -36.00010    85.000000    69.000000     -1.50000 MotionCorr/job002/frames/TS_54_023_-36_0_PS.mrc MotionCorr/job002/frames/TS_54_023_-36_0_EVN.mrc MotionCorr/job002/frames/TS_54_023_-36_0_ODD.mrc MotionCorr/job002/frames/TS_54_023_-36_0.mrc MotionCorr/job002/frames/TS_54_023_-36_0.star     7.357381     0.000000     7.357381 CtfFind/job003/frames/TS_54_023_-36_0_PS.ctf:mrc 15311.516286 15788.110084   288.270508   -163.17068     0.090527     9.817775     0.500270     -0.13688    -36.20155    85.024653     -3.72040    -56.87900     0.899088 
frames/TS_54_022_-33.0.mrc           10    -32.99950    85.000000    66.000000     -1.50000 MotionCorr/job002/frames/TS_54_022_-33_0_PS.mrc MotionCorr/job002/frames/TS_54_022_-33_0_EVN.mrc MotionCorr/job002/frames/TS_54_022_-33_0_ODD.mrc MotionCorr/job002/frames/TS_54_022_-33_0.mrc MotionCorr/job002/frames/TS_54_022_-33_0.star     8.160680     0.000000     8.160680 CtfFind/job003/frames/TS_54_022_-33_0_PS.ctf:mrc 15125.563261 15662.243500   294.715820   171.080494     0.103930     8.532114     0.868000     -0.15478    -33.21581    85.016507     -6.65203    -48.03324     0.922594 
frames/TS_54_019_-30.0.mrc           10    -30.00030    85.000000    57.000000     -1.50000 MotionCorr/job002/frames/TS_54_019_-30_0_PS.mrc MotionCorr/job002/frames/TS_54_019_-30_0_EVN.mrc MotionCorr/job002/frames/TS_54_019_-30_0_ODD.mrc MotionCorr/job002/frames/TS_54_019_-30_0.mrc MotionCorr/job002/frames/TS_54_019_-30_0.star     6.365004     0.000000     6.365004 CtfFind/job003/frames/TS_54_019_-30_0_PS.ctf:mrc 15309.984519 15464.535678   301.435547   144.155863     0.092739     9.430231     0.658210     -0.11159    -30.21582    85.024247    -11.44313    -42.64261     1.017097 
frames/TS_54_018_-27.0.mrc           10    -27.00170    85.000000    54.000000     -1.50000 MotionCorr/job002/frames/TS_54_018_-27_0_PS.mrc MotionCorr/job002/frames/TS_54_018_-27_0_EVN.mrc MotionCorr/job002/frames/TS_54_018_-27_0_ODD.mrc MotionCorr/job002/frames/TS_54_018_-27_0.mrc MotionCorr/job002/frames/TS_54_018_-27_0.star     7.058289     0.000000     7.058289 CtfFind/job003/frames/TS_54_018_-27_0_PS.ctf:mrc 14899.476650 15492.476994   325.508789   -168.96453     0.086891     9.072121     0.527930     -0.14074    -27.24867    85.044921    -17.60684    -37.98409     1.026928 
frames/TS_54_015_-24.0.mrc           10    -24.00010    85.000000    45.000000     -1.50000 MotionCorr/job002/frames/TS_54_015_-24_0_PS.mrc MotionCorr/job002/frames/TS_54_015_-24_0_EVN.mrc MotionCorr/job002/frames/TS_54_015_-24_0_ODD.mrc MotionCorr/job002/frames/TS_54_015_-24_0.mrc MotionCorr/job002/frames/TS_54_015_-24_0.star     6.120384     0.000000     6.120384 CtfFind/job003/frames/TS_54_015_-24_0_PS.ctf:mrc 15139.558048 15342.956293   771.327148    54.109624     0.071205     7.388635     0.564480     -0.14723    -24.21733    85.051922    -20.28271    -36.29025     1.258369 
frames/TS_54_014_-21.0.mrc           10    -21.00040    85.000000    42.000000     -1.50000 MotionCorr/job002/frames/TS_54_014_-21_0_PS.mrc MotionCorr/job002/frames/TS_54_014_-21_0_EVN.mrc MotionCorr/job002/frames/TS_54_014_-21_0_ODD.mrc MotionCorr/job002/frames/TS_54_014_-21_0.mrc MotionCorr/job002/frames/TS_54_014_-21_0.star     5.664473     0.000000     5.664473 CtfFind/job003/frames/TS_54_014_-21_0_PS.ctf:mrc 14713.494496 15429.594328   199.931641   139.201040     0.075342     7.963306     0.662400     -0.13036    -21.15050    85.053482    -23.36525    -37.05757     1.179579 
frames/TS_54_011_-18.0.mrc           10    -18.00180    85.000000    33.000000     -1.50000 MotionCorr/job002/frames/TS_54_011_-18_0_PS.mrc MotionCorr/job002/frames/TS_54_011_-18_0_EVN.mrc MotionCorr/job002/frames/TS_54_011_-18_0_ODD.mrc MotionCorr/job002/frames/TS_54_011_-18_0.mrc MotionCorr/job002/frames/TS_54_011_-18_0.star     5.176144     0.000000     5.176144 CtfFind/job003/frames/TS_54_011_-18_0_PS.ctf:mrc 15177.035624 15347.688608     0.000000   157.644166     0.088412     6.958229     0.985870     -0.12549    -18.07672    85.062106    -17.44669    -23.23410     1.316791 
frames/TS_54_010_-15.0.mrc           10    -15.00320    85.000000    30.000000     -1.50000 MotionCorr/job002/frames/TS_54_010_-15_0_PS.mrc MotionCorr/job002/frames/TS_54_010_-15_0_EVN.mrc MotionCorr/job002/frames/TS_54_010_-15_0_ODD.mrc MotionCorr/job002/frames/TS_54_010_-15_0.mrc MotionCorr/job002/frames/TS_54_010_-15_0.star     5.213246     0.000000     5.213246 CtfFind/job003/frames/TS_54_010_-15_0_PS.ctf:mrc 15113.331890 15314.723606    65.493164   113.551413     0.081766     6.636089     0.901650     -0.14295    -15.03596    85.071738    -20.71613    -32.23717     1.402053 
frames/TS_54_007_-12.0.mrc           10    -11.99850    85.000000    21.000000     -1.50000 MotionCorr/job002/frames/TS_54_007_-12_0_PS.mrc MotionCorr/job002/frames/TS_54_007_-12_0_EVN.mrc MotionCorr/job002/frames/TS_54_007_-12_0_ODD.mrc MotionCorr/job002/frames/TS_54_007_-12_0.mrc MotionCorr/job002/frames/TS_54_007_-12_0.star     4.194469     0.000000     4.194469 CtfFind/job003/frames/TS_54_007_-12_0_PS.ctf:mrc 15146.008973 15315.258488     0.001953   125.161037     0.097848     5.874570     0.694140     -0.14376    -12.02357    85.073122    -18.88990    -14.53820     1.611366 
frames/TS_54_006_-9.0.mrc           10     -8.99940    85.000000    18.000000     -1.50000 MotionCorr/job002/frames/TS_54_006_-9_0_PS.mrc MotionCorr/job002/frames/TS_54_006_-9_0_EVN.mrc MotionCorr/job002/frames/TS_54_006_-9_0_ODD.mrc MotionCorr/job002/frames/TS_54_006_-9_0.mrc MotionCorr/job002/frames/TS_54_006_-9_0.star     4.226744     0.000000     4.226744 CtfFind/job003/frames/TS_54_006_-9_0_PS.ctf:mrc 15058.646984 15272.939753   126.666992   139.713102     0.087386     5.429527     0.606490     -0.13917     -8.97719    85.077035    -18.00436    -26.45322     1.562957 
frames/TS_54_003_-6.0.mrc           10     -5.99876    85.000000     9.000000     -1.50000 MotionCorr/job002/frames/TS_54_003_-6_0_PS.mrc MotionCorr/job002/frames/TS_54_003_-6_0_EVN.mrc MotionCorr/job002/frames/TS_54_003_-6_0_ODD.mrc MotionCorr/job002/frames/TS_54_003_-6_0.mrc MotionCorr/job002/frames/TS_54_003_-6_0.star     4.304615     0.000000     4.304615 CtfFind/job003/frames/TS_54_003_-6_0_PS.ctf:mrc 15053.102422 15281.967643   210.468750   122.376567     0.094744     5.119268     1.053120     -0.08472     -5.96402    85.069107    -18.30857     -5.28328     1.706818 
frames/TS_54_002_-3.0.mrc           10     -2.99963    85.000000     6.000000     -1.50000 MotionCorr/job002/frames/TS_54_002_-3_0_PS.mrc MotionCorr/job002/frames/TS_54_002_-3_0_EVN.mrc MotionCorr/job002/frames/TS_54_002_-3_0_ODD.mrc MotionCorr/job002/frames/TS_54_002_-3_0.mrc MotionCorr/job002/frames/TS_54_002_-3_0.star     3.218856     0.000000     3.218856 CtfFind/job003/frames/TS_54_002_-3_0_PS.ctf:mrc 15100.501560 15329.792374   211.693359   132.829197     0.098356     5.082961     0.615130     -0.04774     -2.94119    85.069254    -22.65280    -28.66555     1.855539 
frames/TS_54_000_-0.0.mrc           10 -5.00000e-04    85.000000     0.000000     -1.50000 MotionCorr/job002/frames/TS_54_000_-0_0_PS.mrc MotionCorr/job002/frames/TS_54_000_-0_0_EVN.mrc MotionCorr/job002/frames/TS_54_000_-0_0_ODD.mrc MotionCorr/job002/frames/TS_54_000_-0_0.mrc MotionCorr/job002/frames/TS_54_000_-0_0.star     3.898448     2.142234     1.756215 CtfFind/job003/frames/TS_54_000_-0_0_PS.ctf:mrc 15156.222910 15380.632535   265.158203   126.532391     0.093887     5.119268     0.826400     0.005033     0.060305    85.069891    -14.79202    -35.37743     1.970213 
frames/TS_54_001_3.0.mrc           10     2.999630    85.000000     3.000000     -1.50000 MotionCorr/job002/frames/TS_54_001_3_0_PS.mrc MotionCorr/job002/frames/TS_54_001_3_0_EVN.mrc MotionCorr/job002/frames/TS_54_001_3_0_ODD.mrc MotionCorr/job002/frames/TS_54_001_3_0.mrc MotionCorr/job002/frames/TS_54_001_3_0.star     2.820754     0.000000     2.820754 CtfFind/job003/frames/TS_54_001_3_0_PS.ctf:mrc 15128.179495 15375.897857   273.129883   125.479175     0.093105     5.231369     0.492000     -0.04409     3.080418    85.078958    -23.17915    -41.25986     1.803238 
frames/TS_54_004_6.0.mrc           10     5.999760    85.000000    12.000000     -1.50000 MotionCorr/job002/frames/TS_54_004_6_0_PS.mrc MotionCorr/job002/frames/TS_54_004_6_0_EVN.mrc MotionCorr/job002/frames/TS_54_004_6_0_ODD.mrc MotionCorr/job002/frames/TS_54_004_6_0.mrc MotionCorr/job002/frames/TS_54_004_6_0.star     3.085074     0.000000     3.085074 CtfFind/job003/frames/TS_54_004_6_0_PS.ctf:mrc 14971.621933 15236.642081   409.930664   132.604921     0.087902     5.156098     1.092580     -0.12164     6.108376    85.095752    -21.80846    -46.44678     1.696912 
frames/TS_54_005_9.0.mrc           10     8.999400    85.000000    15.000000     -1.50000 MotionCorr/job002/frames/TS_54_005_9_0_PS.mrc MotionCorr/job002/frames/TS_54_005_9_0_EVN.mrc MotionCorr/job002/frames/TS_54_005_9_0_ODD.mrc MotionCorr/job002/frames/TS_54_005_9_0.mrc MotionCorr/job002/frames/TS_54_005_9_0.star     2.978818     0.000000     2.978818 CtfFind/job003/frames/TS_54_005_9_0_PS.ctf:mrc 14986.836746 15330.673175   461.936523   127.069164     0.103138     5.269835     0.700960     -0.15092     9.112138    85.105661    -19.56589    -34.24856     1.663694 
frames/TS_54_008_12.0.mrc           10    12.000500    85.000000    24.000000     -1.50000 MotionCorr/job002/frames/TS_54_008_12_0_PS.mrc MotionCorr/job002/frames/TS_54_008_12_0_EVN.mrc MotionCorr/job002/frames/TS_54_008_12_0_ODD.mrc MotionCorr/job002/frames/TS_54_008_12_0.mrc MotionCorr/job002/frames/TS_54_008_12_0.star     3.162589     0.000000     3.162589 CtfFind/job003/frames/TS_54_008_12_0_PS.ctf:mrc 15026.657037 15220.594604    99.137695   126.974202     0.076736     6.178427     0.835920     -0.18739    12.118817    85.122286    -18.97847    -42.97725     1.534423 
frames/TS_54_009_15.0.mrc           10    15.000200    85.000000    27.000000     -1.50000 MotionCorr/job002/frames/TS_54_009_15_0_PS.mrc MotionCorr/job002/frames/TS_54_009_15_0_EVN.mrc MotionCorr/job002/frames/TS_54_009_15_0_ODD.mrc MotionCorr/job002/frames/TS_54_009_15_0.mrc MotionCorr/job002/frames/TS_54_009_15_0.star     3.562077     0.000000     3.562077 CtfFind/job003/frames/TS_54_009_15_0_PS.ctf:mrc 14923.207730 15321.539448   238.048828   133.372116     0.093326     6.232153     1.033810     -0.17860    15.083369    85.132386    -15.69426    -26.99349     1.550820 
frames/TS_54_012_18.0.mrc           10    18.000800    85.000000    36.000000     -1.50000 MotionCorr/job002/frames/TS_54_012_18_0_PS.mrc MotionCorr/job002/frames/TS_54_012_18_0_EVN.mrc MotionCorr/job002/frames/TS_54_012_18_0_ODD.mrc MotionCorr/job002/frames/TS_54_012_18_0.mrc MotionCorr/job002/frames/TS_54_012_18_0.star     4.641988     0.000000     4.641988 CtfFind/job003/frames/TS_54_012_18_0_PS.ctf:mrc 14894.688375 15396.709965   369.802734   132.203610     0.075756     6.761298     0.585740     -0.16277    18.035562    85.145557    -13.87477    -37.74650     1.303623 
frames/TS_54_013_21.0.mrc           10    21.000400    85.000000    39.000000     -1.50000 MotionCorr/job002/frames/TS_54_013_21_0_PS.mrc MotionCorr/job002/frames/TS_54_013_21_0_EVN.mrc MotionCorr/job002/frames/TS_54_013_21_0_ODD.mrc MotionCorr/job002/frames/TS_54_013_21_0.mrc MotionCorr/job002/frames/TS_54_013_21_0.star     3.758693     0.000000     3.758693 CtfFind/job003/frames/TS_54_013_21_0_PS.ctf:mrc 14898.243283 15779.618239   339.397461   154.104057     0.069856     6.515432     0.798500     -0.16781    20.931958    85.127216    -10.95734    -25.11994     1.119359 
frames/TS_54_016_24.0.mrc           10    24.000100    85.000000    48.000000     -1.50000 MotionCorr/job002/frames/TS_54_016_24_0_PS.mrc MotionCorr/job002/frames/TS_54_016_24_0_EVN.mrc MotionCorr/job002/frames/TS_54_016_24_0_ODD.mrc MotionCorr/job002/frames/TS_54_016_24_0.mrc MotionCorr/job002/frames/TS_54_016_24_0.star     5.241663     0.000000     5.241663 CtfFind/job003/frames/TS_54_016_24_0_PS.ctf:mrc 14535.033126 15120.041513   393.947266   -178.47001     0.088287     7.388635     0.645080     -0.23103    23.998000    85.142329    -11.28634    -36.34205     1.124032 
frames/TS_54_017_27.0.mrc           10    26.999700    85.000000    51.000000     -1.50000 MotionCorr/job002/frames/TS_54_017_27_0_PS.mrc MotionCorr/job002/frames/TS_54_017_27_0_EVN.mrc MotionCorr/job002/frames/TS_54_017_27_0_ODD.mrc MotionCorr/job002/frames/TS_54_017_27_0.mrc MotionCorr/job002/frames/TS_54_017_27_0.star     4.953899     0.000000     4.953899 CtfFind/job003/frames/TS_54_017_27_0_PS.ctf:mrc 14900.539905 15316.437307    88.263672   141.414822     0.084095     7.963306     0.643290     -0.21930    27.025211    85.157476     -9.50937    -23.84285     1.102981 
frames/TS_54_020_30.0.mrc           10    29.999300    85.000000    60.000000     -1.50000 MotionCorr/job002/frames/TS_54_020_30_0_PS.mrc MotionCorr/job002/frames/TS_54_020_30_0_EVN.mrc MotionCorr/job002/frames/TS_54_020_30_0_ODD.mrc MotionCorr/job002/frames/TS_54_020_30_0.mrc MotionCorr/job002/frames/TS_54_020_30_0.star     5.211208     0.000000     5.211208 CtfFind/job003/frames/TS_54_020_30_0_PS.ctf:mrc 15126.986212 15608.907782   444.293945   103.756283     0.091226     7.963306     0.674620     -0.25931    29.993878    85.165427    -15.15740    -33.11324     1.010948 
frames/TS_54_021_33.0.mrc           10    32.999500    85.000000    63.000000     -1.50000 MotionCorr/job002/frames/TS_54_021_33_0_PS.mrc MotionCorr/job002/frames/TS_54_021_33_0_EVN.mrc MotionCorr/job002/frames/TS_54_021_33_0_ODD.mrc MotionCorr/job002/frames/TS_54_021_33_0.mrc MotionCorr/job002/frames/TS_54_021_33_0.star     5.540879     0.000000     5.540879 CtfFind/job003/frames/TS_54_021_33_0_PS.ctf:mrc 15280.611724 15601.411052   117.846680   145.151681     0.070125     9.307761     1.282160     -0.29221    33.029804    85.159096     -9.17093    -16.24605     0.879699 
frames/TS_54_024_36.0.mrc           10    36.000100    85.000000    72.000000     -1.50000 MotionCorr/job002/frames/TS_54_024_36_0_PS.mrc MotionCorr/job002/frames/TS_54_024_36_0_EVN.mrc MotionCorr/job002/frames/TS_54_024_36_0_ODD.mrc MotionCorr/job002/frames/TS_54_024_36_0.mrc MotionCorr/job002/frames/TS_54_024_36_0.star     6.820884     0.000000     6.820884 CtfFind/job003/frames/TS_54_024_36_0_PS.ctf:mrc 15119.488042 15466.455299   117.241211   -151.51251     0.119576     9.555968     0.611340     -0.34951    35.964808    85.145978    -11.88855    -38.82142     0.978975 
frames/TS_54_025_39.0.mrc           10    38.999200    85.000000    75.000000     -1.50000 MotionCorr/job002/frames/TS_54_025_39_0_PS.mrc MotionCorr/job002/frames/TS_54_025_39_0_EVN.mrc MotionCorr/job002/frames/TS_54_025_39_0_ODD.mrc MotionCorr/job002/frames/TS_54_025_39_0.mrc MotionCorr/job002/frames/TS_54_025_39_0.star     7.490082     0.000000     7.490082 CtfFind/job003/frames/TS_54_025_39_0_PS.ctf:mrc 15240.545107 15593.820003     0.000000   121.204101     0.117302    10.094332     0.737300     -0.26968    39.010232    85.152370     -1.45919    -20.15008     0.905842 
frames/TS_54_028_42.0.mrc           10    41.996900    85.000000    84.000000     -1.50000 MotionCorr/job002/frames/TS_54_028_42_0_PS.mrc MotionCorr/job002/frames/TS_54_028_42_0_EVN.mrc MotionCorr/job002/frames/TS_54_028_42_0_ODD.mrc MotionCorr/job002/frames/TS_54_028_42_0.mrc MotionCorr/job002/frames/TS_54_028_42_0.star     8.404922     0.000000     8.404922 CtfFind/job003/frames/TS_54_028_42_0_PS.ctf:mrc 15238.452350 15914.525922   341.065430   120.318862     0.121007    10.696979     0.713250     -0.31979    41.938536    85.179483    -15.37332    -32.59434     0.815700 
frames/TS_54_029_45.0.mrc           10    44.997500    85.000000    87.000000     -1.50000 MotionCorr/job002/frames/TS_54_029_45_0_PS.mrc MotionCorr/job002/frames/TS_54_029_45_0_EVN.mrc MotionCorr/job002/frames/TS_54_029_45_0_ODD.mrc MotionCorr/job002/frames/TS_54_029_45_0.mrc MotionCorr/job002/frames/TS_54_029_45_0.star     8.971955     0.000000     8.971955 CtfFind/job003/frames/TS_54_029_45_0_PS.ctf:mrc 14900.027734 15045.958395    99.777344   165.575141     0.145571    11.376152     0.548480     -0.31001    44.939230    85.198456     2.460574    -21.65333     0.705628 
frames/TS_54_032_48.0.mrc           10    47.998100    85.000000    96.000000     -1.50000 MotionCorr/job002/frames/TS_54_032_48_0_PS.mrc MotionCorr/job002/frames/TS_54_032_48_0_EVN.mrc MotionCorr/job002/frames/TS_54_032_48_0_ODD.mrc MotionCorr/job002/frames/TS_54_032_48_0.mrc MotionCorr/job002/frames/TS_54_032_48_0.star     7.462951     0.000000     7.462951 CtfFind/job003/frames/TS_54_032_48_0_PS.ctf:mrc 14778.611103 14947.475036    99.599609   146.092589     0.110570    11.198400     0.608910     -0.26064    47.844960    85.244082    -20.47074    -40.94433     0.647567 
frames/TS_54_033_51.0.mrc           10    50.996300    85.000000    99.000000     -1.50000 MotionCorr/job002/frames/TS_54_033_51_0_PS.mrc MotionCorr/job002/frames/TS_54_033_51_0_EVN.mrc MotionCorr/job002/frames/TS_54_033_51_0_ODD.mrc MotionCorr/job002/frames/TS_54_033_51_0.mrc MotionCorr/job002/frames/TS_54_033_51_0.star     9.473860     0.000000     9.473860 CtfFind/job003/frames/TS_54_033_51_0_PS.ctf:mrc 15310.070090 15496.103323    91.287109   162.723802     0.127937    11.198400     0.528160     -0.37986    50.957385    85.156725     -4.15571    -38.59809     0.584022 
frames/TS_54_036_54.0.mrc           10    53.997400    85.000000   108.000000     -1.50000 MotionCorr/job002/frames/TS_54_036_54_0_PS.mrc MotionCorr/job002/frames/TS_54_036_54_0_EVN.mrc MotionCorr/job002/frames/TS_54_036_54_0_ODD.mrc MotionCorr/job002/frames/TS_54_036_54_0.mrc MotionCorr/job002/frames/TS_54_036_54_0.star    10.354688     0.000000    10.354688 CtfFind/job003/frames/TS_54_036_54_0_PS.ctf:mrc 15089.748466 15207.407578   102.067383   129.269210     0.132164    25.000000     1.123490     -0.42719    53.829900    85.115839    -28.49698    -56.31125     0.567577 
frames/TS_54_037_57.0.mrc           10    56.996500    85.000000   111.000000     -1.50000 MotionCorr/job002/frames/TS_54_037_57_0_PS.mrc MotionCorr/job002/frames/TS_54_037_57_0_EVN.mrc MotionCorr/job002/frames/TS_54_037_57_0_ODD.mrc MotionCorr/job002/frames/TS_54_037_57_0.mrc MotionCorr/job002/frames/TS_54_037_57_0.star    11.211188     0.000000    11.211188 CtfFind/job003/frames/TS_54_037_57_0_PS.ctf:mrc 14931.925043 14954.765305    44.361328   -153.04354     0.127873    10.539670     0.606530     -0.22924    56.860768    85.268204    -14.04166    -40.54051     0.580528 
frames/TS_54_040_60.0.mrc           10    59.997200    85.000000   120.000000     -1.50000 MotionCorr/job002/frames/TS_54_040_60_0_PS.mrc MotionCorr/job002/frames/TS_54_040_60_0_EVN.mrc MotionCorr/job002/frames/TS_54_040_60_0_ODD.mrc MotionCorr/job002/frames/TS_54_040_60_0.mrc MotionCorr/job002/frames/TS_54_040_60_0.star     9.814438     0.000000     9.814438 CtfFind/job003/frames/TS_54_040_60_0_PS.ctf:mrc 15662.225096 15885.363742    83.993164   -177.46166     0.177517    25.000000     0.672730     -0.44885    59.818547    85.120991    -27.52513    -57.74300     0.505094 
 
