
# version 50001

data_TS_03

loop_ 
_rlnMicrographMovieName #1 
_rlnTomoTiltMovieFrameCount #2 
_rlnTomoNominalStageTiltAngle #3 
_rlnTomoNominalTiltAxisAngle #4 
_rlnMicrographPreExposure #5 
_rlnTomoNominalDefocus #6 
_rlnCtfPowerSpectrum #7 
_rlnMicrographNameEven #8 
_rlnMicrographNameOdd #9 
_rlnMicrographName #10 
_rlnMicrographMetadata #11 
_rlnAccumMotionTotal #12 
_rlnAccumMotionEarly #13 
_rlnAccumMotionLate #14 
frames/TS_03_000_0.0.mrc            8     0.001500    85.000000     0.000000     -1.50000 MotionCorr/job002/frames/TS_03_000_0_0_PS.mrc MotionCorr/job002/frames/TS_03_000_0_0_EVN.mrc MotionCorr/job002/frames/TS_03_000_0_0_ODD.mrc MotionCorr/job002/frames/TS_03_000_0_0.mrc MotionCorr/job002/frames/TS_03_000_0_0.star     4.072953     2.389154     1.683799 
frames/TS_03_001_3.0.mrc            8     3.001130    85.000000     3.000000     -1.50000 MotionCorr/job002/frames/TS_03_001_3_0_PS.mrc MotionCorr/job002/frames/TS_03_001_3_0_EVN.mrc MotionCorr/job002/frames/TS_03_001_3_0_ODD.mrc MotionCorr/job002/frames/TS_03_001_3_0.mrc MotionCorr/job002/frames/TS_03_001_3_0.star     2.934302     0.000000     2.934302 
frames/TS_03_002_-3.0.mrc            8     -2.99863    85.000000     6.000000     -1.50000 MotionCorr/job002/frames/TS_03_002_-3_0_PS.mrc MotionCorr/job002/frames/TS_03_002_-3_0_EVN.mrc MotionCorr/job002/frames/TS_03_002_-3_0_ODD.mrc MotionCorr/job002/frames/TS_03_002_-3_0.mrc MotionCorr/job002/frames/TS_03_002_-3_0.star     1.817747     0.000000     1.817747 
frames/TS_03_003_-6.0.mrc            8     -5.99827    85.000000     9.000000     -1.50000 MotionCorr/job002/frames/TS_03_003_-6_0_PS.mrc MotionCorr/job002/frames/TS_03_003_-6_0_EVN.mrc MotionCorr/job002/frames/TS_03_003_-6_0_ODD.mrc MotionCorr/job002/frames/TS_03_003_-6_0.mrc MotionCorr/job002/frames/TS_03_003_-6_0.star     2.179822     0.000000     2.179822 
frames/TS_03_004_6.0.mrc            8     6.000760    85.000000    12.000000     -1.50000 MotionCorr/job002/frames/TS_03_004_6_0_PS.mrc MotionCorr/job002/frames/TS_03_004_6_0_EVN.mrc MotionCorr/job002/frames/TS_03_004_6_0_ODD.mrc MotionCorr/job002/frames/TS_03_004_6_0.mrc MotionCorr/job002/frames/TS_03_004_6_0.star     2.497861     0.000000     2.497861 
frames/TS_03_005_9.0.mrc            8     9.001400    85.000000    15.000000     -1.50000 MotionCorr/job002/frames/TS_03_005_9_0_PS.mrc MotionCorr/job002/frames/TS_03_005_9_0_EVN.mrc MotionCorr/job002/frames/TS_03_005_9_0_ODD.mrc MotionCorr/job002/frames/TS_03_005_9_0.mrc MotionCorr/job002/frames/TS_03_005_9_0.star     1.609453     0.000000     1.609453 
frames/TS_03_006_-9.0.mrc            8     -8.99890    85.000000    18.000000     -1.50000 MotionCorr/job002/frames/TS_03_006_-9_0_PS.mrc MotionCorr/job002/frames/TS_03_006_-9_0_EVN.mrc MotionCorr/job002/frames/TS_03_006_-9_0_ODD.mrc MotionCorr/job002/frames/TS_03_006_-9_0.mrc MotionCorr/job002/frames/TS_03_006_-9_0.star     2.740379     0.000000     2.740379 
frames/TS_03_007_-12.0.mrc            8    -11.99800    85.000000    21.000000     -1.50000 MotionCorr/job002/frames/TS_03_007_-12_0_PS.mrc MotionCorr/job002/frames/TS_03_007_-12_0_EVN.mrc MotionCorr/job002/frames/TS_03_007_-12_0_ODD.mrc MotionCorr/job002/frames/TS_03_007_-12_0.mrc MotionCorr/job002/frames/TS_03_007_-12_0.star     2.313651     0.000000     2.313651 
frames/TS_03_008_12.0.mrc            8    12.000500    85.000000    24.000000     -1.50000 MotionCorr/job002/frames/TS_03_008_12_0_PS.mrc MotionCorr/job002/frames/TS_03_008_12_0_EVN.mrc MotionCorr/job002/frames/TS_03_008_12_0_ODD.mrc MotionCorr/job002/frames/TS_03_008_12_0.mrc MotionCorr/job002/frames/TS_03_008_12_0.star     3.120055     0.000000     3.120055 
frames/TS_03_009_15.0.mrc            8    15.000700    85.000000    27.000000     -1.50000 MotionCorr/job002/frames/TS_03_009_15_0_PS.mrc MotionCorr/job002/frames/TS_03_009_15_0_EVN.mrc MotionCorr/job002/frames/TS_03_009_15_0_ODD.mrc MotionCorr/job002/frames/TS_03_009_15_0.mrc MotionCorr/job002/frames/TS_03_009_15_0.star     2.301584     0.000000     2.301584 
frames/TS_03_010_-15.0.mrc            8    -14.99920    85.000000    30.000000     -1.50000 MotionCorr/job002/frames/TS_03_010_-15_0_PS.mrc MotionCorr/job002/frames/TS_03_010_-15_0_EVN.mrc MotionCorr/job002/frames/TS_03_010_-15_0_ODD.mrc MotionCorr/job002/frames/TS_03_010_-15_0.mrc MotionCorr/job002/frames/TS_03_010_-15_0.star     3.136864     0.000000     3.136864 
frames/TS_03_011_-18.0.mrc            8    -17.99880    85.000000    33.000000     -1.50000 MotionCorr/job002/frames/TS_03_011_-18_0_PS.mrc MotionCorr/job002/frames/TS_03_011_-18_0_EVN.mrc MotionCorr/job002/frames/TS_03_011_-18_0_ODD.mrc MotionCorr/job002/frames/TS_03_011_-18_0.mrc MotionCorr/job002/frames/TS_03_011_-18_0.star     2.602850     0.000000     2.602850 
frames/TS_03_012_18.0.mrc            8    18.000300    85.000000    36.000000     -1.50000 MotionCorr/job002/frames/TS_03_012_18_0_PS.mrc MotionCorr/job002/frames/TS_03_012_18_0_EVN.mrc MotionCorr/job002/frames/TS_03_012_18_0_ODD.mrc MotionCorr/job002/frames/TS_03_012_18_0.mrc MotionCorr/job002/frames/TS_03_012_18_0.star     2.646684     0.000000     2.646684 
frames/TS_03_013_21.0.mrc            8    21.000900    85.000000    39.000000     -1.50000 MotionCorr/job002/frames/TS_03_013_21_0_PS.mrc MotionCorr/job002/frames/TS_03_013_21_0_EVN.mrc MotionCorr/job002/frames/TS_03_013_21_0_ODD.mrc MotionCorr/job002/frames/TS_03_013_21_0.mrc MotionCorr/job002/frames/TS_03_013_21_0.star     2.705364     0.000000     2.705364 
frames/TS_03_014_-21.0.mrc            8    -20.99890    85.000000    42.000000     -1.50000 MotionCorr/job002/frames/TS_03_014_-21_0_PS.mrc MotionCorr/job002/frames/TS_03_014_-21_0_EVN.mrc MotionCorr/job002/frames/TS_03_014_-21_0_ODD.mrc MotionCorr/job002/frames/TS_03_014_-21_0.mrc MotionCorr/job002/frames/TS_03_014_-21_0.star     2.414818     0.000000     2.414818 
frames/TS_03_015_-24.0.mrc            8    -23.99860    85.000000    45.000000     -1.50000 MotionCorr/job002/frames/TS_03_015_-24_0_PS.mrc MotionCorr/job002/frames/TS_03_015_-24_0_EVN.mrc MotionCorr/job002/frames/TS_03_015_-24_0_ODD.mrc MotionCorr/job002/frames/TS_03_015_-24_0.mrc MotionCorr/job002/frames/TS_03_015_-24_0.star     2.726784     0.000000     2.726784 
frames/TS_03_016_24.0.mrc            8    24.000600    85.000000    48.000000     -1.50000 MotionCorr/job002/frames/TS_03_016_24_0_PS.mrc MotionCorr/job002/frames/TS_03_016_24_0_EVN.mrc MotionCorr/job002/frames/TS_03_016_24_0_ODD.mrc MotionCorr/job002/frames/TS_03_016_24_0.mrc MotionCorr/job002/frames/TS_03_016_24_0.star     2.614310     0.000000     2.614310 
frames/TS_03_017_27.0.mrc            8    27.000700    85.000000    51.000000     -1.50000 MotionCorr/job002/frames/TS_03_017_27_0_PS.mrc MotionCorr/job002/frames/TS_03_017_27_0_EVN.mrc MotionCorr/job002/frames/TS_03_017_27_0_ODD.mrc MotionCorr/job002/frames/TS_03_017_27_0.mrc MotionCorr/job002/frames/TS_03_017_27_0.star     3.655325     0.000000     3.655325 
frames/TS_03_018_-27.0.mrc            8    -26.99870    85.000000    54.000000     -1.50000 MotionCorr/job002/frames/TS_03_018_-27_0_PS.mrc MotionCorr/job002/frames/TS_03_018_-27_0_EVN.mrc MotionCorr/job002/frames/TS_03_018_-27_0_ODD.mrc MotionCorr/job002/frames/TS_03_018_-27_0.mrc MotionCorr/job002/frames/TS_03_018_-27_0.star     2.942248     0.000000     2.942248 
frames/TS_03_019_-30.0.mrc            8    -29.99930    85.000000    57.000000     -1.50000 MotionCorr/job002/frames/TS_03_019_-30_0_PS.mrc MotionCorr/job002/frames/TS_03_019_-30_0_EVN.mrc MotionCorr/job002/frames/TS_03_019_-30_0_ODD.mrc MotionCorr/job002/frames/TS_03_019_-30_0.mrc MotionCorr/job002/frames/TS_03_019_-30_0.star     2.650273     0.000000     2.650273 
frames/TS_03_020_30.0.mrc            8    30.000800    85.000000    60.000000     -1.50000 MotionCorr/job002/frames/TS_03_020_30_0_PS.mrc MotionCorr/job002/frames/TS_03_020_30_0_EVN.mrc MotionCorr/job002/frames/TS_03_020_30_0_ODD.mrc MotionCorr/job002/frames/TS_03_020_30_0.mrc MotionCorr/job002/frames/TS_03_020_30_0.star     2.856914     0.000000     2.856914 
frames/TS_03_021_33.0.mrc            8    33.001000    85.000000    63.000000     -1.50000 MotionCorr/job002/frames/TS_03_021_33_0_PS.mrc MotionCorr/job002/frames/TS_03_021_33_0_EVN.mrc MotionCorr/job002/frames/TS_03_021_33_0_ODD.mrc MotionCorr/job002/frames/TS_03_021_33_0.mrc MotionCorr/job002/frames/TS_03_021_33_0.star     3.391973     0.000000     3.391973 
frames/TS_03_022_-33.0.mrc            8    -32.99900    85.000000    66.000000     -1.50000 MotionCorr/job002/frames/TS_03_022_-33_0_PS.mrc MotionCorr/job002/frames/TS_03_022_-33_0_EVN.mrc MotionCorr/job002/frames/TS_03_022_-33_0_ODD.mrc MotionCorr/job002/frames/TS_03_022_-33_0.mrc MotionCorr/job002/frames/TS_03_022_-33_0.star     3.010083     0.000000     3.010083 
frames/TS_03_023_-36.0.mrc            8    -35.99860    85.000000    69.000000     -1.50000 MotionCorr/job002/frames/TS_03_023_-36_0_PS.mrc MotionCorr/job002/frames/TS_03_023_-36_0_EVN.mrc MotionCorr/job002/frames/TS_03_023_-36_0_ODD.mrc MotionCorr/job002/frames/TS_03_023_-36_0.mrc MotionCorr/job002/frames/TS_03_023_-36_0.star     3.701328     0.000000     3.701328 
frames/TS_03_024_36.0.mrc            8    36.000600    85.000000    72.000000     -1.50000 MotionCorr/job002/frames/TS_03_024_36_0_PS.mrc MotionCorr/job002/frames/TS_03_024_36_0_EVN.mrc MotionCorr/job002/frames/TS_03_024_36_0_ODD.mrc MotionCorr/job002/frames/TS_03_024_36_0.mrc MotionCorr/job002/frames/TS_03_024_36_0.star     3.601807     0.000000     3.601807 
frames/TS_03_025_39.0.mrc            8    39.000700    85.000000    75.000000     -1.50000 MotionCorr/job002/frames/TS_03_025_39_0_PS.mrc MotionCorr/job002/frames/TS_03_025_39_0_EVN.mrc MotionCorr/job002/frames/TS_03_025_39_0_ODD.mrc MotionCorr/job002/frames/TS_03_025_39_0.mrc MotionCorr/job002/frames/TS_03_025_39_0.star     2.430764     0.000000     2.430764 
frames/TS_03_026_-39.0.mrc            8    -38.99870    85.000000    78.000000     -1.50000 MotionCorr/job002/frames/TS_03_026_-39_0_PS.mrc MotionCorr/job002/frames/TS_03_026_-39_0_EVN.mrc MotionCorr/job002/frames/TS_03_026_-39_0_ODD.mrc MotionCorr/job002/frames/TS_03_026_-39_0.mrc MotionCorr/job002/frames/TS_03_026_-39_0.star     3.213115     0.000000     3.213115 
frames/TS_03_027_-42.0.mrc            8    -41.99940    85.000000    81.000000     -1.50000 MotionCorr/job002/frames/TS_03_027_-42_0_PS.mrc MotionCorr/job002/frames/TS_03_027_-42_0_EVN.mrc MotionCorr/job002/frames/TS_03_027_-42_0_ODD.mrc MotionCorr/job002/frames/TS_03_027_-42_0.mrc MotionCorr/job002/frames/TS_03_027_-42_0.star     3.259830     0.000000     3.259830 
frames/TS_03_028_42.0.mrc            8    42.000900    85.000000    84.000000     -1.50000 MotionCorr/job002/frames/TS_03_028_42_0_PS.mrc MotionCorr/job002/frames/TS_03_028_42_0_EVN.mrc MotionCorr/job002/frames/TS_03_028_42_0_ODD.mrc MotionCorr/job002/frames/TS_03_028_42_0.mrc MotionCorr/job002/frames/TS_03_028_42_0.star     4.460118     0.000000     4.460118 
frames/TS_03_029_45.0.mrc            8    45.000500    85.000000    87.000000     -1.50000 MotionCorr/job002/frames/TS_03_029_45_0_PS.mrc MotionCorr/job002/frames/TS_03_029_45_0_EVN.mrc MotionCorr/job002/frames/TS_03_029_45_0_ODD.mrc MotionCorr/job002/frames/TS_03_029_45_0.mrc MotionCorr/job002/frames/TS_03_029_45_0.star     4.061861     0.000000     4.061861 
frames/TS_03_030_-45.0.mrc            8    -44.99900    85.000000    90.000000     -1.50000 MotionCorr/job002/frames/TS_03_030_-45_0_PS.mrc MotionCorr/job002/frames/TS_03_030_-45_0_EVN.mrc MotionCorr/job002/frames/TS_03_030_-45_0_ODD.mrc MotionCorr/job002/frames/TS_03_030_-45_0.mrc MotionCorr/job002/frames/TS_03_030_-45_0.star     4.361125     0.000000     4.361125 
frames/TS_03_031_-48.0.mrc            8    -47.99910    85.000000    93.000000     -1.50000 MotionCorr/job002/frames/TS_03_031_-48_0_PS.mrc MotionCorr/job002/frames/TS_03_031_-48_0_EVN.mrc MotionCorr/job002/frames/TS_03_031_-48_0_ODD.mrc MotionCorr/job002/frames/TS_03_031_-48_0.mrc MotionCorr/job002/frames/TS_03_031_-48_0.star     5.301389     0.000000     5.301389 
frames/TS_03_032_48.0.mrc            8    47.999600    85.000000    96.000000     -1.50000 MotionCorr/job002/frames/TS_03_032_48_0_PS.mrc MotionCorr/job002/frames/TS_03_032_48_0_EVN.mrc MotionCorr/job002/frames/TS_03_032_48_0_ODD.mrc MotionCorr/job002/frames/TS_03_032_48_0.mrc MotionCorr/job002/frames/TS_03_032_48_0.star     3.930790     0.000000     3.930790 
frames/TS_03_033_51.0.mrc            8    50.999800    85.000000    99.000000     -1.50000 MotionCorr/job002/frames/TS_03_033_51_0_PS.mrc MotionCorr/job002/frames/TS_03_033_51_0_EVN.mrc MotionCorr/job002/frames/TS_03_033_51_0_ODD.mrc MotionCorr/job002/frames/TS_03_033_51_0.mrc MotionCorr/job002/frames/TS_03_033_51_0.star     3.402876     0.000000     3.402876 
frames/TS_03_034_-51.0.mrc            8    -50.99930    85.000000   102.000000     -1.50000 MotionCorr/job002/frames/TS_03_034_-51_0_PS.mrc MotionCorr/job002/frames/TS_03_034_-51_0_EVN.mrc MotionCorr/job002/frames/TS_03_034_-51_0_ODD.mrc MotionCorr/job002/frames/TS_03_034_-51_0.mrc MotionCorr/job002/frames/TS_03_034_-51_0.star     8.906427     0.000000     8.906427 
frames/TS_03_035_-54.0.mrc            8    -53.99890    85.000000   105.000000     -1.50000 MotionCorr/job002/frames/TS_03_035_-54_0_PS.mrc MotionCorr/job002/frames/TS_03_035_-54_0_EVN.mrc MotionCorr/job002/frames/TS_03_035_-54_0_ODD.mrc MotionCorr/job002/frames/TS_03_035_-54_0.mrc MotionCorr/job002/frames/TS_03_035_-54_0.star    39.495946     0.000000    39.495946 
frames/TS_03_036_54.0.mrc            8    53.996900    85.000000   108.000000     -1.50000 MotionCorr/job002/frames/TS_03_036_54_0_PS.mrc MotionCorr/job002/frames/TS_03_036_54_0_EVN.mrc MotionCorr/job002/frames/TS_03_036_54_0_ODD.mrc MotionCorr/job002/frames/TS_03_036_54_0.mrc MotionCorr/job002/frames/TS_03_036_54_0.star     3.360161     0.000000     3.360161 
frames/TS_03_037_57.0.mrc            8    56.996000    85.000000   111.000000     -1.50000 MotionCorr/job002/frames/TS_03_037_57_0_PS.mrc MotionCorr/job002/frames/TS_03_037_57_0_EVN.mrc MotionCorr/job002/frames/TS_03_037_57_0_ODD.mrc MotionCorr/job002/frames/TS_03_037_57_0.mrc MotionCorr/job002/frames/TS_03_037_57_0.star     3.062455     0.000000     3.062455 
frames/TS_03_038_-57.0.mrc            8    -56.99900    85.000000   114.000000     -1.50000 MotionCorr/job002/frames/TS_03_038_-57_0_PS.mrc MotionCorr/job002/frames/TS_03_038_-57_0_EVN.mrc MotionCorr/job002/frames/TS_03_038_-57_0_ODD.mrc MotionCorr/job002/frames/TS_03_038_-57_0.mrc MotionCorr/job002/frames/TS_03_038_-57_0.star    96.111993     0.000000    96.111993 
frames/TS_03_039_-60.0.mrc            8    -59.99910    85.000000   117.000000     -1.50000 MotionCorr/job002/frames/TS_03_039_-60_0_PS.mrc MotionCorr/job002/frames/TS_03_039_-60_0_EVN.mrc MotionCorr/job002/frames/TS_03_039_-60_0_ODD.mrc MotionCorr/job002/frames/TS_03_039_-60_0.mrc MotionCorr/job002/frames/TS_03_039_-60_0.star     7.475700     0.000000     7.475700 
frames/TS_03_040_60.0.mrc            8    59.998100    85.000000   120.000000     -1.50000 MotionCorr/job002/frames/TS_03_040_60_0_PS.mrc MotionCorr/job002/frames/TS_03_040_60_0_EVN.mrc MotionCorr/job002/frames/TS_03_040_60_0_ODD.mrc MotionCorr/job002/frames/TS_03_040_60_0.mrc MotionCorr/job002/frames/TS_03_040_60_0.star     4.056148     0.000000     4.056148 
 
