
# version 50001

data_TS_43

loop_ 
_rlnMicrographMovieName #1 
_rlnTomoTiltMovieFrameCount #2 
_rlnTomoNominalStageTiltAngle #3 
_rlnTomoNominalTiltAxisAngle #4 
_rlnMicrographPreExposure #5 
_rlnTomoNominalDefocus #6 
_rlnCtfPowerSpectrum #7 
_rlnMicrographNameEven #8 
_rlnMicrographNameOdd #9 
_rlnMicrographName #10 
_rlnMicrographMetadata #11 
_rlnAccumMotionTotal #12 
_rlnAccumMotionEarly #13 
_rlnAccumMotionLate #14 
frames/TS_43_000_0.0.mrc           10     0.000000    85.000000     0.000000     -2.50000 MotionCorr/job002/frames/TS_43_000_0_0_PS.mrc MotionCorr/job002/frames/TS_43_000_0_0_EVN.mrc MotionCorr/job002/frames/TS_43_000_0_0_ODD.mrc MotionCorr/job002/frames/TS_43_000_0_0.mrc MotionCorr/job002/frames/TS_43_000_0_0.star     2.810945     0.896793     1.914152 
frames/TS_43_001_3.0.mrc           10     3.000130    85.000000     3.000000     -2.50000 MotionCorr/job002/frames/TS_43_001_3_0_PS.mrc MotionCorr/job002/frames/TS_43_001_3_0_EVN.mrc MotionCorr/job002/frames/TS_43_001_3_0_ODD.mrc MotionCorr/job002/frames/TS_43_001_3_0.mrc MotionCorr/job002/frames/TS_43_001_3_0.star     3.184465     0.000000     3.184465 
frames/TS_43_002_-3.0.mrc           10     -2.99913    85.000000     6.000000     -2.50000 MotionCorr/job002/frames/TS_43_002_-3_0_PS.mrc MotionCorr/job002/frames/TS_43_002_-3_0_EVN.mrc MotionCorr/job002/frames/TS_43_002_-3_0_ODD.mrc MotionCorr/job002/frames/TS_43_002_-3_0.mrc MotionCorr/job002/frames/TS_43_002_-3_0.star     3.167235     0.000000     3.167235 
frames/TS_43_003_-6.0.mrc           10     -5.99927    85.000000     9.000000     -2.50000 MotionCorr/job002/frames/TS_43_003_-6_0_PS.mrc MotionCorr/job002/frames/TS_43_003_-6_0_EVN.mrc MotionCorr/job002/frames/TS_43_003_-6_0_ODD.mrc MotionCorr/job002/frames/TS_43_003_-6_0.mrc MotionCorr/job002/frames/TS_43_003_-6_0.star     3.384419     0.000000     3.384419 
frames/TS_43_004_6.0.mrc           10     5.999270    85.000000    12.000000     -2.50000 MotionCorr/job002/frames/TS_43_004_6_0_PS.mrc MotionCorr/job002/frames/TS_43_004_6_0_EVN.mrc MotionCorr/job002/frames/TS_43_004_6_0_ODD.mrc MotionCorr/job002/frames/TS_43_004_6_0.mrc MotionCorr/job002/frames/TS_43_004_6_0.star     2.978147     0.000000     2.978147 
frames/TS_43_005_9.0.mrc           10     8.998400    85.000000    15.000000     -2.50000 MotionCorr/job002/frames/TS_43_005_9_0_PS.mrc MotionCorr/job002/frames/TS_43_005_9_0_EVN.mrc MotionCorr/job002/frames/TS_43_005_9_0_ODD.mrc MotionCorr/job002/frames/TS_43_005_9_0.mrc MotionCorr/job002/frames/TS_43_005_9_0.star     3.477681     0.000000     3.477681 
frames/TS_43_006_-9.0.mrc           10     -8.99890    85.000000    18.000000     -2.50000 MotionCorr/job002/frames/TS_43_006_-9_0_PS.mrc MotionCorr/job002/frames/TS_43_006_-9_0_EVN.mrc MotionCorr/job002/frames/TS_43_006_-9_0_ODD.mrc MotionCorr/job002/frames/TS_43_006_-9_0.mrc MotionCorr/job002/frames/TS_43_006_-9_0.star     3.285717     0.000000     3.285717 
frames/TS_43_007_-12.0.mrc           10    -11.99900    85.000000    21.000000     -2.50000 MotionCorr/job002/frames/TS_43_007_-12_0_PS.mrc MotionCorr/job002/frames/TS_43_007_-12_0_EVN.mrc MotionCorr/job002/frames/TS_43_007_-12_0_ODD.mrc MotionCorr/job002/frames/TS_43_007_-12_0.mrc MotionCorr/job002/frames/TS_43_007_-12_0.star     3.865264     0.000000     3.865264 
frames/TS_43_008_12.0.mrc           10    11.999000    85.000000    24.000000     -2.50000 MotionCorr/job002/frames/TS_43_008_12_0_PS.mrc MotionCorr/job002/frames/TS_43_008_12_0_EVN.mrc MotionCorr/job002/frames/TS_43_008_12_0_ODD.mrc MotionCorr/job002/frames/TS_43_008_12_0.mrc MotionCorr/job002/frames/TS_43_008_12_0.star     3.335631     0.000000     3.335631 
frames/TS_43_009_15.0.mrc           10    15.000200    85.000000    27.000000     -2.50000 MotionCorr/job002/frames/TS_43_009_15_0_PS.mrc MotionCorr/job002/frames/TS_43_009_15_0_EVN.mrc MotionCorr/job002/frames/TS_43_009_15_0_ODD.mrc MotionCorr/job002/frames/TS_43_009_15_0.mrc MotionCorr/job002/frames/TS_43_009_15_0.star     3.416277     0.000000     3.416277 
frames/TS_43_010_-15.0.mrc           10    -15.00370    85.000000    30.000000     -2.50000 MotionCorr/job002/frames/TS_43_010_-15_0_PS.mrc MotionCorr/job002/frames/TS_43_010_-15_0_EVN.mrc MotionCorr/job002/frames/TS_43_010_-15_0_ODD.mrc MotionCorr/job002/frames/TS_43_010_-15_0.mrc MotionCorr/job002/frames/TS_43_010_-15_0.star     3.478029     0.000000     3.478029 
frames/TS_43_011_-18.0.mrc           10    -18.00330    85.000000    33.000000     -2.50000 MotionCorr/job002/frames/TS_43_011_-18_0_PS.mrc MotionCorr/job002/frames/TS_43_011_-18_0_EVN.mrc MotionCorr/job002/frames/TS_43_011_-18_0_ODD.mrc MotionCorr/job002/frames/TS_43_011_-18_0.mrc MotionCorr/job002/frames/TS_43_011_-18_0.star     5.192582     0.000000     5.192582 
frames/TS_43_012_18.0.mrc           10    18.000800    85.000000    36.000000     -2.50000 MotionCorr/job002/frames/TS_43_012_18_0_PS.mrc MotionCorr/job002/frames/TS_43_012_18_0_EVN.mrc MotionCorr/job002/frames/TS_43_012_18_0_ODD.mrc MotionCorr/job002/frames/TS_43_012_18_0.mrc MotionCorr/job002/frames/TS_43_012_18_0.star     3.552104     0.000000     3.552104 
frames/TS_43_013_21.0.mrc           10    20.999900    85.000000    39.000000     -2.50000 MotionCorr/job002/frames/TS_43_013_21_0_PS.mrc MotionCorr/job002/frames/TS_43_013_21_0_EVN.mrc MotionCorr/job002/frames/TS_43_013_21_0_ODD.mrc MotionCorr/job002/frames/TS_43_013_21_0.mrc MotionCorr/job002/frames/TS_43_013_21_0.star     3.772947     0.000000     3.772947 
frames/TS_43_014_-21.0.mrc           10    -21.00140    85.000000    42.000000     -2.50000 MotionCorr/job002/frames/TS_43_014_-21_0_PS.mrc MotionCorr/job002/frames/TS_43_014_-21_0_EVN.mrc MotionCorr/job002/frames/TS_43_014_-21_0_ODD.mrc MotionCorr/job002/frames/TS_43_014_-21_0.mrc MotionCorr/job002/frames/TS_43_014_-21_0.star     4.970441     0.000000     4.970441 
frames/TS_43_015_-24.0.mrc           10    -24.00060    85.000000    45.000000     -2.50000 MotionCorr/job002/frames/TS_43_015_-24_0_PS.mrc MotionCorr/job002/frames/TS_43_015_-24_0_EVN.mrc MotionCorr/job002/frames/TS_43_015_-24_0_ODD.mrc MotionCorr/job002/frames/TS_43_015_-24_0.mrc MotionCorr/job002/frames/TS_43_015_-24_0.star     4.421890     0.000000     4.421890 
frames/TS_43_016_24.0.mrc           10    23.999600    85.000000    48.000000     -2.50000 MotionCorr/job002/frames/TS_43_016_24_0_PS.mrc MotionCorr/job002/frames/TS_43_016_24_0_EVN.mrc MotionCorr/job002/frames/TS_43_016_24_0_ODD.mrc MotionCorr/job002/frames/TS_43_016_24_0.mrc MotionCorr/job002/frames/TS_43_016_24_0.star     3.618342     0.000000     3.618342 
frames/TS_43_017_27.0.mrc           10    26.999700    85.000000    51.000000     -2.50000 MotionCorr/job002/frames/TS_43_017_27_0_PS.mrc MotionCorr/job002/frames/TS_43_017_27_0_EVN.mrc MotionCorr/job002/frames/TS_43_017_27_0_ODD.mrc MotionCorr/job002/frames/TS_43_017_27_0.mrc MotionCorr/job002/frames/TS_43_017_27_0.star     3.617766     0.000000     3.617766 
frames/TS_43_018_-27.0.mrc           10    -27.00070    85.000000    54.000000     -2.50000 MotionCorr/job002/frames/TS_43_018_-27_0_PS.mrc MotionCorr/job002/frames/TS_43_018_-27_0_EVN.mrc MotionCorr/job002/frames/TS_43_018_-27_0_ODD.mrc MotionCorr/job002/frames/TS_43_018_-27_0.mrc MotionCorr/job002/frames/TS_43_018_-27_0.star     3.866844     0.000000     3.866844 
frames/TS_43_019_-30.0.mrc           10    -29.99980    85.000000    57.000000     -2.50000 MotionCorr/job002/frames/TS_43_019_-30_0_PS.mrc MotionCorr/job002/frames/TS_43_019_-30_0_EVN.mrc MotionCorr/job002/frames/TS_43_019_-30_0_ODD.mrc MotionCorr/job002/frames/TS_43_019_-30_0.mrc MotionCorr/job002/frames/TS_43_019_-30_0.star     5.360931     0.000000     5.360931 
frames/TS_43_020_30.0.mrc           10    29.999800    85.000000    60.000000     -2.50000 MotionCorr/job002/frames/TS_43_020_30_0_PS.mrc MotionCorr/job002/frames/TS_43_020_30_0_EVN.mrc MotionCorr/job002/frames/TS_43_020_30_0_ODD.mrc MotionCorr/job002/frames/TS_43_020_30_0.mrc MotionCorr/job002/frames/TS_43_020_30_0.star     4.117562     0.000000     4.117562 
frames/TS_43_021_33.0.mrc           10    33.000000    85.000000    63.000000     -2.50000 MotionCorr/job002/frames/TS_43_021_33_0_PS.mrc MotionCorr/job002/frames/TS_43_021_33_0_EVN.mrc MotionCorr/job002/frames/TS_43_021_33_0_ODD.mrc MotionCorr/job002/frames/TS_43_021_33_0.mrc MotionCorr/job002/frames/TS_43_021_33_0.star     4.916295     0.000000     4.916295 
frames/TS_43_022_-33.0.mrc           10    -33.00000    85.000000    66.000000     -2.50000 MotionCorr/job002/frames/TS_43_022_-33_0_PS.mrc MotionCorr/job002/frames/TS_43_022_-33_0_EVN.mrc MotionCorr/job002/frames/TS_43_022_-33_0_ODD.mrc MotionCorr/job002/frames/TS_43_022_-33_0.mrc MotionCorr/job002/frames/TS_43_022_-33_0.star     3.799344     0.000000     3.799344 
frames/TS_43_023_-36.0.mrc           10    -36.00010    85.000000    69.000000     -2.50000 MotionCorr/job002/frames/TS_43_023_-36_0_PS.mrc MotionCorr/job002/frames/TS_43_023_-36_0_EVN.mrc MotionCorr/job002/frames/TS_43_023_-36_0_ODD.mrc MotionCorr/job002/frames/TS_43_023_-36_0.mrc MotionCorr/job002/frames/TS_43_023_-36_0.star     4.895332     0.000000     4.895332 
frames/TS_43_024_36.0.mrc           10    35.999600    85.000000    72.000000     -2.50000 MotionCorr/job002/frames/TS_43_024_36_0_PS.mrc MotionCorr/job002/frames/TS_43_024_36_0_EVN.mrc MotionCorr/job002/frames/TS_43_024_36_0_ODD.mrc MotionCorr/job002/frames/TS_43_024_36_0.mrc MotionCorr/job002/frames/TS_43_024_36_0.star     5.823372     0.000000     5.823372 
frames/TS_43_025_39.0.mrc           10    38.999200    85.000000    75.000000     -2.50000 MotionCorr/job002/frames/TS_43_025_39_0_PS.mrc MotionCorr/job002/frames/TS_43_025_39_0_EVN.mrc MotionCorr/job002/frames/TS_43_025_39_0_ODD.mrc MotionCorr/job002/frames/TS_43_025_39_0.mrc MotionCorr/job002/frames/TS_43_025_39_0.star     4.309618     0.000000     4.309618 
frames/TS_43_026_-39.0.mrc           10    -38.99970    85.000000    78.000000     -2.50000 MotionCorr/job002/frames/TS_43_026_-39_0_PS.mrc MotionCorr/job002/frames/TS_43_026_-39_0_EVN.mrc MotionCorr/job002/frames/TS_43_026_-39_0_ODD.mrc MotionCorr/job002/frames/TS_43_026_-39_0.mrc MotionCorr/job002/frames/TS_43_026_-39_0.star     5.769808     0.000000     5.769808 
frames/TS_43_027_-42.0.mrc           10    -41.99940    85.000000    81.000000     -2.50000 MotionCorr/job002/frames/TS_43_027_-42_0_PS.mrc MotionCorr/job002/frames/TS_43_027_-42_0_EVN.mrc MotionCorr/job002/frames/TS_43_027_-42_0_ODD.mrc MotionCorr/job002/frames/TS_43_027_-42_0.mrc MotionCorr/job002/frames/TS_43_027_-42_0.star     6.120841     0.000000     6.120841 
frames/TS_43_028_42.0.mrc           10    41.999400    85.000000    84.000000     -2.50000 MotionCorr/job002/frames/TS_43_028_42_0_PS.mrc MotionCorr/job002/frames/TS_43_028_42_0_EVN.mrc MotionCorr/job002/frames/TS_43_028_42_0_ODD.mrc MotionCorr/job002/frames/TS_43_028_42_0.mrc MotionCorr/job002/frames/TS_43_028_42_0.star     4.040794     0.000000     4.040794 
frames/TS_43_029_45.0.mrc           10    44.999000    85.000000    87.000000     -2.50000 MotionCorr/job002/frames/TS_43_029_45_0_PS.mrc MotionCorr/job002/frames/TS_43_029_45_0_EVN.mrc MotionCorr/job002/frames/TS_43_029_45_0_ODD.mrc MotionCorr/job002/frames/TS_43_029_45_0.mrc MotionCorr/job002/frames/TS_43_029_45_0.star     4.307779     0.000000     4.307779 
frames/TS_43_030_-45.0.mrc           10    -45.00000    85.000000    90.000000     -2.50000 MotionCorr/job002/frames/TS_43_030_-45_0_PS.mrc MotionCorr/job002/frames/TS_43_030_-45_0_EVN.mrc MotionCorr/job002/frames/TS_43_030_-45_0_ODD.mrc MotionCorr/job002/frames/TS_43_030_-45_0.mrc MotionCorr/job002/frames/TS_43_030_-45_0.star     6.843554     0.000000     6.843554 
frames/TS_43_031_-48.0.mrc           10    -47.99910    85.000000    93.000000     -2.50000 MotionCorr/job002/frames/TS_43_031_-48_0_PS.mrc MotionCorr/job002/frames/TS_43_031_-48_0_EVN.mrc MotionCorr/job002/frames/TS_43_031_-48_0_ODD.mrc MotionCorr/job002/frames/TS_43_031_-48_0.mrc MotionCorr/job002/frames/TS_43_031_-48_0.star     7.402671     0.000000     7.402671 
frames/TS_43_032_48.0.mrc           10    47.997100    85.000000    96.000000     -2.50000 MotionCorr/job002/frames/TS_43_032_48_0_PS.mrc MotionCorr/job002/frames/TS_43_032_48_0_EVN.mrc MotionCorr/job002/frames/TS_43_032_48_0_ODD.mrc MotionCorr/job002/frames/TS_43_032_48_0.mrc MotionCorr/job002/frames/TS_43_032_48_0.star     3.090059     0.000000     3.090059 
frames/TS_43_033_51.0.mrc           10    50.996300    85.000000    99.000000     -2.50000 MotionCorr/job002/frames/TS_43_033_51_0_PS.mrc MotionCorr/job002/frames/TS_43_033_51_0_EVN.mrc MotionCorr/job002/frames/TS_43_033_51_0_ODD.mrc MotionCorr/job002/frames/TS_43_033_51_0.mrc MotionCorr/job002/frames/TS_43_033_51_0.star     5.632723     0.000000     5.632723 
frames/TS_43_034_-51.0.mrc           10    -51.00030    85.000000   102.000000     -2.50000 MotionCorr/job002/frames/TS_43_034_-51_0_PS.mrc MotionCorr/job002/frames/TS_43_034_-51_0_EVN.mrc MotionCorr/job002/frames/TS_43_034_-51_0_ODD.mrc MotionCorr/job002/frames/TS_43_034_-51_0.mrc MotionCorr/job002/frames/TS_43_034_-51_0.star     8.636927     0.000000     8.636927 
frames/TS_43_035_-54.0.mrc           10    -53.99940    85.000000   105.000000     -2.50000 MotionCorr/job002/frames/TS_43_035_-54_0_PS.mrc MotionCorr/job002/frames/TS_43_035_-54_0_EVN.mrc MotionCorr/job002/frames/TS_43_035_-54_0_ODD.mrc MotionCorr/job002/frames/TS_43_035_-54_0.mrc MotionCorr/job002/frames/TS_43_035_-54_0.star     9.453412     0.000000     9.453412 
frames/TS_43_036_54.0.mrc           10    53.996900    85.000000   108.000000     -2.50000 MotionCorr/job002/frames/TS_43_036_54_0_PS.mrc MotionCorr/job002/frames/TS_43_036_54_0_EVN.mrc MotionCorr/job002/frames/TS_43_036_54_0_ODD.mrc MotionCorr/job002/frames/TS_43_036_54_0.mrc MotionCorr/job002/frames/TS_43_036_54_0.star     3.820902     0.000000     3.820902 
frames/TS_43_037_57.0.mrc           10    56.996000    85.000000   111.000000     -2.50000 MotionCorr/job002/frames/TS_43_037_57_0_PS.mrc MotionCorr/job002/frames/TS_43_037_57_0_EVN.mrc MotionCorr/job002/frames/TS_43_037_57_0_ODD.mrc MotionCorr/job002/frames/TS_43_037_57_0.mrc MotionCorr/job002/frames/TS_43_037_57_0.star     7.472044     0.000000     7.472044 
frames/TS_43_038_-57.0.mrc           10    -56.99900    85.000000   114.000000     -2.50000 MotionCorr/job002/frames/TS_43_038_-57_0_PS.mrc MotionCorr/job002/frames/TS_43_038_-57_0_EVN.mrc MotionCorr/job002/frames/TS_43_038_-57_0_ODD.mrc MotionCorr/job002/frames/TS_43_038_-57_0.mrc MotionCorr/job002/frames/TS_43_038_-57_0.star    15.545098     0.000000    15.545098 
frames/TS_43_039_-60.0.mrc           10    -59.99910    85.000000   117.000000     -2.50000 MotionCorr/job002/frames/TS_43_039_-60_0_PS.mrc MotionCorr/job002/frames/TS_43_039_-60_0_EVN.mrc MotionCorr/job002/frames/TS_43_039_-60_0_ODD.mrc MotionCorr/job002/frames/TS_43_039_-60_0.mrc MotionCorr/job002/frames/TS_43_039_-60_0.star    16.206940     0.000000    16.206940 
frames/TS_43_040_60.0.mrc           10    59.996200    85.000000   120.000000     -2.50000 MotionCorr/job002/frames/TS_43_040_60_0_PS.mrc MotionCorr/job002/frames/TS_43_040_60_0_EVN.mrc MotionCorr/job002/frames/TS_43_040_60_0_ODD.mrc MotionCorr/job002/frames/TS_43_040_60_0.mrc MotionCorr/job002/frames/TS_43_040_60_0.star     5.212197     0.000000     5.212197 
 
