# RELION postprocess; version 5.0-beta-2-commit-a0b145
# --mask mask_fsc.mrc --i Reconstruct/job048/half1.mrc --o PostProcess/job049/postprocess --angpix -1 --pipeline_control PostProcess/job049/ 

# version 50001

data_general

_rlnFinalResolution                               3.410526
_rlnBfactorUsedForSharpening                      0.000000
_rlnUnfilteredMapHalf1                        Reconstruct/job048/half1.mrc
_rlnUnfilteredMapHalf2                        Reconstruct/job048/half2.mrc
_rlnPostprocessedMap                          PostProcess/job049/postprocess.mrc
_rlnParticleBoxFractionSolventMask               10.682012
_rlnMaskName                                  mask_fsc.mrc
_rlnRandomiseFrom                                 7.005406
_rlnPostprocessedMapMasked                    PostProcess/job049/postprocess_masked.mrc
 

# version 50001

data_fsc

loop_ 
_rlnSpectralIndex #1 
_rlnResolution #2 
_rlnAngstromResolution #3 
_rlnFourierShellCorrelationCorrected #4 
_rlnFourierShellCorrelationParticleMaskFraction #5 
_rlnFourierShellCorrelationUnmaskedMaps #6 
_rlnFourierShellCorrelationMaskedMaps #7 
_rlnCorrectedFourierShellCorrelationPhaseRandomizedMaskedMaps #8 
           0     0.001001   999.000000     1.000000     1.000000     1.000000     1.000000     1.000000 
           1     0.003858   259.200012     0.999091     0.999958     0.999554     0.999091     0.998960 
           2     0.007716   129.600006     0.998229     0.999870     0.998611     0.998229     0.998100 
           3     0.011574    86.400004     0.999491     0.999991     0.999901     0.999491     0.999562 
           4     0.015432    64.800003     0.999843     0.999984     0.999827     0.999843     0.999849 
           5     0.019290    51.840002     0.999899     0.999973     0.999710     0.999899     0.999899 
           6     0.023148    43.200002     0.999842     0.999947     0.999436     0.999842     0.999843 
           7     0.027006    37.028573     0.999584     0.999889     0.998811     0.999584     0.999599 
           8     0.030864    32.400002     0.999099     0.999882     0.998736     0.999099     0.999178 
           9     0.034722    28.800001     0.998825     0.999792     0.997787     0.998825     0.998905 
          10     0.038580    25.920001     0.998211     0.999710     0.996906     0.998211     0.998197 
          11     0.042438    23.563637     0.997771     0.999587     0.995605     0.997771     0.997704 
          12     0.046296    21.600001     0.997439     0.999284     0.992400     0.997439     0.997340 
          13     0.050154    19.938462     0.996128     0.998670     0.985975     0.996128     0.996000 
          14     0.054012    18.514287     0.994243     0.999159     0.991092     0.994243     0.994251 
          15     0.057870    17.280001     0.994089     0.998654     0.985807     0.994089     0.993987 
          16     0.061728    16.200001     0.992612     0.998226     0.981370     0.992612     0.992783 
          17     0.065586    15.247060     0.992430     0.998662     0.985890     0.992430     0.992887 
          18     0.069444    14.400001     0.993001     0.998780     0.987122     0.993001     0.993264 
          19     0.073302    13.642106     0.992216     0.998473     0.983923     0.992216     0.992332 
          20     0.077160    12.960001     0.991173     0.997920     0.978219     0.991173     0.991049 
          21     0.081019    12.342858     0.990896     0.997574     0.974679     0.990896     0.990727 
          22     0.084877    11.781819     0.990662     0.997416     0.973070     0.990662     0.990625 
          23     0.088735    11.269566     0.991619     0.997680     0.975761     0.991619     0.991755 
          24     0.092593    10.800001     0.992084     0.998138     0.980462     0.992084     0.992242 
          25     0.096451    10.368000     0.989516     0.997889     0.977901     0.989516     0.989662 
          26     0.100309     9.969231     0.985625     0.995519     0.954125     0.985625     0.985587 
          27     0.104167     9.600000     0.983599     0.996590     0.964737     0.983599     0.983300 
          28     0.108025     9.257143     0.983206     0.996241     0.961254     0.983206     0.982562 
          29     0.111883     8.937931     0.979675     0.993936     0.938814     0.979675     0.978635 
          30     0.115741     8.640000     0.971692     0.991060     0.912109     0.971692     0.971369 
          31     0.119599     8.361291     0.967177     0.991142     0.912851     0.967177     0.969053 
          32     0.123457     8.100000     0.961616     0.990002     0.902623     0.961616     0.962860 
          33     0.127315     7.854546     0.952471     0.984464     0.855742     0.952471     0.950878 
          34     0.131173     7.623530     0.949130     0.985775     0.866446     0.949130     0.948068 
          35     0.135031     7.405715     0.945430     0.985742     0.866168     0.945430     0.945634 
          36     0.138889     7.200000     0.925740     0.978295     0.808406     0.925740     0.917391 
          37     0.142747     7.005406     0.899380     0.961456     0.700168     0.899380     0.829972 
          38     0.146605     6.821053     0.884138     0.955599     0.668301     0.884138     0.641017 
          39     0.150463     6.646154     0.792987     0.963148     0.709866     0.875221     0.397242 
          40     0.154321     6.480000     0.809945     0.958974     0.686348     0.870149     0.316772 
          41     0.158179     6.321952     0.815064     0.956184     0.671369     0.857156     0.227605 
          42     0.162037     6.171429     0.795266     0.946678     0.624349     0.837211     0.204879 
          43     0.165895     6.027907     0.804956     0.939038     0.590501     0.842194     0.190921 
          44     0.169753     5.890909     0.813918     0.944889     0.616133     0.835805     0.117621 
          45     0.173611     5.760000     0.792992     0.933839     0.569216     0.815215     0.107349 
          46     0.177469     5.634783     0.792242     0.933125     0.566394     0.808335     0.077457 
          47     0.181327     5.514894     0.797496     0.930423     0.555926     0.807886     0.051306 
          48     0.185185     5.400000     0.803202     0.935535     0.576013     0.814037     0.055057 
          49     0.189043     5.289796     0.826195     0.943521     0.609970     0.831224     0.028935 
          50     0.192901     5.184000     0.835268     0.943821     0.611313     0.838768     0.021249 
          51     0.196759     5.082353     0.835968     0.946239     0.622314     0.839539     0.021769 
          52     0.200617     4.984616     0.825606     0.937521     0.584154     0.828996     0.019439 
          53     0.204475     4.890566     0.804723     0.924607     0.534469     0.807704     0.015265 
          54     0.208333     4.800000     0.786466     0.924111     0.532702     0.790726     0.019949 
          55     0.212191     4.712727     0.778861     0.923132     0.529247     0.785356     0.029374 
          56     0.216049     4.628572     0.774038     0.911304     0.490277     0.779983     0.026309 
          57     0.219907     4.547369     0.765046     0.911520     0.490944     0.767883     0.012074 
          58     0.223765     4.468966     0.750898     0.897640     0.450837     0.755884     0.020017 
          59     0.227623     4.393221     0.724537     0.885791     0.420648     0.729404     0.017667 
          60     0.231481     4.320000     0.691160     0.862143     0.369267     0.693590     0.007868 
          61     0.235339     4.249181     0.661908     0.828030     0.310704     0.663973     0.006110 
          62     0.239198     4.180645     0.638028     0.814717     0.291604     0.637240     -0.00218 
          63     0.243056     4.114286     0.603444     0.814658     0.291523     0.603544 2.540054e-04 
          64     0.246914     4.050000     0.562811     0.767458     0.236033     0.565889     0.007041 
          65     0.250772     3.987692     0.512289     0.694973     0.175796     0.519942     0.015692 
          66     0.254630     3.927273     0.472854     0.686005     0.169799     0.486500     0.025887 
          67     0.258488     3.868657     0.459002     0.673775     0.162023     0.470719     0.021658 
          68     0.262346     3.811765     0.412725     0.611006     0.128194     0.428445     0.026768 
          69     0.266204     3.756522     0.379341     0.573955     0.111992     0.393945     0.023530 
          70     0.270062     3.702857     0.372021     0.564619     0.108261     0.379327     0.011634 
          71     0.273920     3.650704     0.354937     0.500964     0.085904     0.359821     0.007571 
          72     0.277778     3.600000     0.306066     0.411708     0.061487     0.312757     0.009642 
          73     0.281636     3.550685     0.239416     0.395950     0.057816     0.241755     0.003075 
          74     0.285494     3.502703     0.203172     0.328117     0.043719     0.199741     -0.00431 
          75     0.289352     3.456000     0.194459     0.350080     0.048005     0.193432     -0.00128 
          76     0.293210     3.410526     0.152598     0.280151     0.035153     0.158560     0.007036 
          77     0.297068     3.366234     0.100427     0.255660     0.031153     0.117853     0.019371 
          78     0.300926     3.323077     0.089911     -0.08678     -0.00753     0.106566     0.018301 
          79     0.304784     3.281013     0.073936     -0.03603     -0.00327     0.084043     0.010914 
          80     0.308642     3.240000     0.061121     0.013103     0.001241     0.065200     0.004345 
          81     0.312500     3.200000     0.068909     0.053326     0.005246     0.070161     0.001344 
          82     0.316358     3.160976     0.098348     0.011542     0.001092     0.092519     -0.00646 
          83     0.320216     3.122892     0.085233     0.024913     0.002386     0.078435     -0.00743 
          84     0.324074     3.085714     0.027875     0.037509     0.003635     0.027692 -1.88632e-04 
          85     0.327932     3.049412     -0.00160     0.277221     0.034661     -0.00139 2.139301e-04 
          86     0.331790     3.013954     -0.00364     0.085329     0.008658     -0.00671     -0.00305 
          87     0.335648     2.979310     0.007263     -0.02202     -0.00202 4.646949e-04     -0.00685 
          88     0.339506     2.945455     -0.00111     0.054648     0.005383 7.517049e-04     0.001861 
          89     0.343364     2.912360     -0.02307     0.039269     0.003812     -0.01457     0.008305 
          90     0.347222     2.880000     -0.02029     -0.12343     -0.01039     -0.01508     0.005106 
          91     0.351080     2.848352     -0.00766     0.067555     0.006737     0.003300     0.010876 
          92     0.354938     2.817391 6.457754e-04     0.020794     0.001984     0.014572     0.013935 
          93     0.358796     2.787097     -0.02033     -0.05097     -0.00456     -0.00819     0.011905 
          94     0.362654     2.757447     -0.01682     -0.05977     -0.00531     -0.01172     0.005020 
          95     0.366512     2.728421     0.001167     0.143174     0.015402     0.005766     0.004605 
          96     0.370370     2.700000     0.018073     0.173493     0.019272     0.018561 4.976504e-04 
 

# version 50001

data_guinier

loop_ 
_rlnResolutionSquared #1 
_rlnLogAmplitudesOriginal #2 
_rlnLogAmplitudesWeighted #3 
    0.000000    -26.06486    -26.06486 
1.488435e-05     -4.81715     -4.81738 
5.953741e-05     -5.91748     -5.91793 
1.339592e-04     -6.03645     -6.03658 
2.381496e-04     -5.98779     -5.98783 
3.721088e-04     -6.39997     -6.40000 
5.358367e-04     -6.83754     -6.83758 
7.293333e-04     -7.13318     -7.13329 
9.525986e-04     -7.24082     -7.24104 
    0.001206     -7.46064     -7.46094 
    0.001488     -7.49798     -7.49842 
    0.001801     -7.72139     -7.72194 
    0.002143     -8.02687     -8.02751 
    0.002515     -8.17774     -8.17871 
    0.002917     -7.95695     -7.95839 
    0.003349     -8.02269     -8.02417 
    0.003810     -8.11617     -8.11803 
    0.004302     -8.18083     -8.18273 
    0.004823     -8.08537     -8.08713 
    0.005373     -8.06845     -8.07041 
    0.005954     -7.99376     -7.99598 
    0.006564     -8.01297     -8.01527 
    0.007204     -8.12187     -8.12422 
    0.007874     -8.07634     -8.07845 
    0.008573     -7.92218     -7.92417 
    0.009303     -7.94227     -7.94492 
    0.010062     -8.20403     -8.20767 
    0.010851     -8.13730     -8.14145 
    0.011669     -8.20669     -8.21095 
    0.012518     -8.35934     -8.36450 
    0.013396     -8.42862     -8.43585 
    0.014304     -8.47841     -8.48682 
    0.015242     -8.56846     -8.57834 
    0.016209     -8.66985     -8.68217 
    0.017206     -8.63201     -8.64523 
    0.018233     -8.65240     -8.66662 
    0.019290     -8.79489     -8.81455 
    0.020377     -8.93087     -8.95808 
    0.021493     -9.01176     -9.04349 
    0.022639     -8.92379     -8.98513 
    0.023815     -8.94604     -9.00151 
    0.025021     -8.96410     -9.01783 
    0.026256     -8.99429     -9.05483 
    0.027521     -9.04583     -9.10301 
    0.028816     -8.97339     -9.02751 
    0.030141     -8.99686     -9.05820 
    0.031495     -8.98655     -9.04815 
    0.032880     -8.97358     -9.03334 
    0.034294     -8.91717     -8.97496 
    0.035737     -8.85390     -8.90391 
    0.037211     -8.82285     -8.86988 
    0.038714     -8.79549     -8.84228 
    0.040247     -8.83005     -8.88025 
    0.041810     -8.86004     -8.91730 
    0.043403     -8.84487     -8.90852 
    0.045025     -8.82226     -8.88864 
    0.046677     -8.85167     -8.91979 
    0.048359     -8.84317     -8.91460 
    0.050071     -8.88972     -8.96645 
    0.051812     -8.93053     -9.01755 
    0.053584     -8.98745     -9.08828 
    0.055385     -9.04696     -9.16068 
    0.057215     -9.05195     -9.17680 
    0.059076     -9.05791     -9.19996 
    0.060966     -9.08868     -9.25276 
    0.062886     -9.15537     -9.35005 
    0.064836     -9.16021     -9.38172 
    0.066816     -9.16639     -9.39804 
    0.068825     -9.19221     -9.46088 
    0.070864     -9.19175     -9.49064 
    0.072933     -9.19795     -9.50392 
    0.075032     -9.22242     -9.54564 
    0.077160     -9.23480     -9.61371 
    0.079319     -9.24615     -9.72168 
    0.081507     -9.25799     -9.80075 
    0.083724     -9.26685     -9.82789 
    0.085972     -9.26616     -9.93057 
    0.088249     -9.27772    -10.12816 
    0.090556     -9.29977    -10.20071 
    0.092893     -9.29518    -10.28654 
    0.095260     -9.29233    -10.37287 
    0.097656     -9.27729    -10.30151 
    0.100082     -9.27737    -10.13732 
    0.102538     -9.26736    -10.19287 
    0.105024     -9.26841    -10.72559 
    0.107539     -9.25715    -99.00000 
    0.110085     -9.25508    -99.00000 
    0.112660     -9.25669    -99.00000 
    0.115264     -9.25724    -99.00000 
    0.117899     -9.24442    -99.00000 
    0.120563     -9.24410    -99.00000 
    0.123257     -9.23303    -99.00000 
    0.125981     -9.23846    -99.00000 
    0.128735     -9.23367    -99.00000 
    0.131518     -9.23412    -99.00000 
    0.134331     -9.22547    -99.00000 
    0.137174     -9.49301    -99.00000 
 
