# RELION postprocess; version 5.0-beta-2-commit-a0b145
# --mask mask_fsc.mrc --i Reconstruct/job028/half1.mrc --o PostProcess/job029/postprocess --angpix -1 --pipeline_control PostProcess/job029/ 

# version 50001

data_general

_rlnFinalResolution                               3.868657
_rlnBfactorUsedForSharpening                      0.000000
_rlnUnfilteredMapHalf1                        Reconstruct/job028/half1.mrc
_rlnUnfilteredMapHalf2                        Reconstruct/job028/half2.mrc
_rlnPostprocessedMap                          PostProcess/job029/postprocess.mrc
_rlnParticleBoxFractionSolventMask               10.682012
_rlnMaskName                                  mask_fsc.mrc
_rlnRandomiseFrom                                 7.854546
_rlnPostprocessedMapMasked                    PostProcess/job029/postprocess_masked.mrc
 

# version 50001

data_fsc

loop_ 
_rlnSpectralIndex #1 
_rlnResolution #2 
_rlnAngstromResolution #3 
_rlnFourierShellCorrelationCorrected #4 
_rlnFourierShellCorrelationParticleMaskFraction #5 
_rlnFourierShellCorrelationUnmaskedMaps #6 
_rlnFourierShellCorrelationMaskedMaps #7 
_rlnCorrectedFourierShellCorrelationPhaseRandomizedMaskedMaps #8 
           0     0.001001   999.000000     1.000000     1.000000     1.000000     1.000000     1.000000 
           1     0.003858   259.200012     0.998882     0.999949     0.999456     0.998882     0.998746 
           2     0.007716   129.600006     0.997640     0.999871     0.998623     0.997640     0.997463 
           3     0.011574    86.400004     0.999324     0.999993     0.999923     0.999324     0.999403 
           4     0.015432    64.800003     0.999829     0.999991     0.999907     0.999829     0.999867 
           5     0.019290    51.840002     0.999889     0.999975     0.999736     0.999889     0.999899 
           6     0.023148    43.200002     0.999882     0.999954     0.999510     0.999882     0.999886 
           7     0.027006    37.028573     0.999742     0.999925     0.999204     0.999742     0.999738 
           8     0.030864    32.400002     0.999445     0.999894     0.998870     0.999445     0.999453 
           9     0.034722    28.800001     0.999001     0.999828     0.998168     0.999001     0.998973 
          10     0.038580    25.920001     0.998115     0.999731     0.997137     0.998115     0.997966 
          11     0.042438    23.563637     0.997575     0.999596     0.995702     0.997575     0.997373 
          12     0.046296    21.600001     0.997152     0.999209     0.991615     0.997152     0.997029 
          13     0.050154    19.938462     0.996213     0.998549     0.984712     0.996213     0.995954 
          14     0.054012    18.514287     0.993904     0.998964     0.989048     0.993904     0.993563 
          15     0.057870    17.280001     0.992107     0.998330     0.982447     0.992107     0.991725 
          16     0.061728    16.200001     0.989206     0.997274     0.971625     0.989206     0.988757 
          17     0.065586    15.247060     0.990506     0.997762     0.976604     0.990506     0.990273 
          18     0.069444    14.400001     0.991958     0.998641     0.985669     0.991958     0.992225 
          19     0.073302    13.642106     0.990049     0.998103     0.980104     0.990049     0.990138 
          20     0.077160    12.960001     0.987538     0.997076     0.969623     0.987538     0.987081 
          21     0.081019    12.342858     0.987685     0.997066     0.969526     0.987685     0.987680 
          22     0.084877    11.781819     0.987132     0.996731     0.966147     0.987132     0.987279 
          23     0.088735    11.269566     0.987215     0.996626     0.965098     0.987215     0.987603 
          24     0.092593    10.800001     0.987863     0.997661     0.975567     0.987863     0.988680 
          25     0.096451    10.368000     0.985578     0.997242     0.971304     0.985578     0.986350 
          26     0.100309     9.969231     0.979819     0.992727     0.927418     0.979819     0.979867 
          27     0.104167     9.600000     0.974450     0.994558     0.944776     0.974450     0.973611 
          28     0.108025     9.257143     0.971409     0.994321     0.942499     0.971409     0.970983 
          29     0.111883     8.937931     0.965074     0.990270     0.905013     0.965074     0.965793 
          30     0.115741     8.640000     0.950627     0.982981     0.843925     0.950627     0.950420 
          31     0.119599     8.361291     0.938825     0.980951     0.828206     0.938825     0.937649 
          32     0.123457     8.100000     0.929522     0.983192     0.845589     0.929522     0.918959 
          33     0.127315     7.854546     0.911463     0.969638     0.749355     0.911463     0.834406 
          34     0.131173     7.623530     0.895073     0.969724     0.749903     0.895073     0.588066 
          35     0.135031     7.405715     0.799574     0.971633     0.762272     0.884164     0.422050 
          36     0.138889     7.200000     0.775238     0.956395     0.672482     0.851051     0.337303 
          37     0.142747     7.005406     0.719955     0.908554     0.481894     0.802233     0.293805 
          38     0.146605     6.821053     0.672860     0.904270     0.469298     0.760205     0.266998 
          39     0.150463     6.646154     0.702718     0.925095     0.536213     0.757004     0.182607 
          40     0.154321     6.480000     0.724091     0.904627     0.470325     0.760520     0.132032 
          41     0.158179     6.321952     0.684342     0.900564     0.458830     0.725011     0.128837 
          42     0.162037     6.171429     0.647172     0.880396     0.407968     0.696976     0.141158 
          43     0.165895     6.027907     0.652572     0.845326     0.338462     0.687506     0.100553 
          44     0.169753     5.890909     0.642206     0.871127     0.387554     0.671705     0.082449 
          45     0.173611     5.760000     0.620021     0.839864     0.329302     0.652596     0.085729 
          46     0.177469     5.634783     0.639314     0.839485     0.328681     0.655259     0.044209 
          47     0.181327     5.514894     0.628938     0.832460     0.317475     0.639829     0.029349 
          48     0.185185     5.400000     0.629597     0.828009     0.310673     0.639379     0.026409 
          49     0.189043     5.289796     0.631277     0.839861     0.329296     0.635583     0.011679 
          50     0.192901     5.184000     0.608476     0.834226     0.320237     0.616398     0.020234 
          51     0.196759     5.082353     0.603902     0.850810     0.348057     0.608282     0.011057 
          52     0.200617     4.984616     0.604684     0.819757     0.298624     0.603573     -0.00281 
          53     0.204475     4.890566     0.585720     0.791478     0.262173     0.584263     -0.00352 
          54     0.208333     4.800000     0.551342     0.794879     0.266204     0.555327     0.008882 
          55     0.212191     4.712727     0.539858     0.776565     0.245492     0.545778     0.012865 
          56     0.216049     4.628572     0.499551     0.727596     0.200031     0.503639     0.008168 
          57     0.219907     4.547369     0.444238     0.747137     0.216673     0.450997     0.012160 
          58     0.223765     4.468966     0.433217     0.696483     0.176833     0.440210     0.012338 
          59     0.227623     4.393221     0.394150     0.642641     0.144091     0.388369     -0.00954 
          60     0.231481     4.320000     0.323962     0.608801     0.127162     0.325334     0.002030 
          61     0.235339     4.249181     0.318691     0.495064     0.084069     0.322483     0.005566 
          62     0.239198     4.180645     0.331486     0.503918     0.086837     0.333443     0.002928 
          63     0.243056     4.114286     0.305011     0.535943     0.097568     0.312211     0.010359 
          64     0.246914     4.050000     0.276748     0.474774     0.078021     0.282444     0.007876 
          65     0.250772     3.987692     0.228531     0.240270     0.028755     0.234261     0.007428 
          66     0.254630     3.927273     0.191212     0.204665     0.023524     0.204759     0.016750 
          67     0.258488     3.868657     0.159560     0.145917     0.015742     0.174675     0.017985 
          68     0.262346     3.811765     0.105429     0.288053     0.036494     0.120671     0.017039 
          69     0.266204     3.756522     0.080106     0.173844     0.019318     0.093837     0.014927 
          70     0.270062     3.702857     0.081292     0.173805     0.019313     0.097428     0.017563 
          71     0.273920     3.650704     0.072517     0.138687     0.014850     0.082954     0.011253 
          72     0.277778     3.600000     0.053220     0.227978     0.026901     0.051092     -0.00225 
          73     0.281636     3.550685     0.039216     0.113061     0.011793     0.041631     0.002514 
          74     0.285494     3.502703     0.013484     0.085267     0.008651     0.028301     0.015020 
          75     0.289352     3.456000     0.002968     0.228398     0.026963     0.004236     0.001273 
          76     0.293210     3.410526     0.007545     0.249664     0.030208 1.367684e-04     -0.00747 
          77     0.297068     3.366234     0.013618     0.042003     0.004088     0.012971 -6.56053e-04 
          78     0.300926     3.323077     0.030760     -0.05759     -0.00512     0.043215     0.012851 
          79     0.304784     3.281013     0.015586     -0.05527     -0.00493     0.029665     0.014303 
          80     0.308642     3.240000     -0.00719     0.116524     0.012197     -0.00324     0.003925 
          81     0.312500     3.200000     -0.02662     -0.05261     -0.00470     -0.01879     0.007622 
          82     0.316358     3.160976     -0.02041     -0.06791     -0.00599     -0.01334     0.006925 
          83     0.320216     3.122892     -0.02221     -0.00212 -1.98055e-04     -0.00738     0.014506 
          84     0.324074     3.085714     -0.03725     -0.00518 -4.82453e-04     -0.01534     0.021125 
          85     0.327932     3.049412     -0.04636     -0.04094     -0.00370     -0.03187     0.013844 
          86     0.331790     3.013954     -0.02086     -0.04969     -0.00445     -0.01259     0.008100 
          87     0.335648     2.979310     0.001857     -0.09276     -0.00801     0.012982     0.011146 
          88     0.339506     2.945455     0.001280     -0.01223     -0.00113     0.004953     0.003677 
          89     0.343364     2.912360     0.004251     -0.01021 -9.47029e-04 -1.44228e-06     -0.00427 
          90     0.347222     2.880000     0.021977     -0.04569     -0.00411     0.013382     -0.00879 
          91     0.351080     2.848352     0.016976     -0.02837     -0.00259     0.011985     -0.00508 
          92     0.354938     2.817391     0.016992     0.057374     0.005666     0.019092     0.002136 
          93     0.358796     2.787097     0.036336     0.072087     0.007220     0.035076     -0.00131 
          94     0.362654     2.757447     0.029103     0.146116     0.015767     0.028771 -3.42339e-04 
          95     0.366512     2.728421     0.011754     0.150104     0.016265     0.014753     0.003035 
          96     0.370370     2.700000     0.020916     0.119783     0.012579     0.020096 -8.37257e-04 
 

# version 50001

data_guinier

loop_ 
_rlnResolutionSquared #1 
_rlnLogAmplitudesOriginal #2 
_rlnLogAmplitudesWeighted #3 
    0.000000    -26.37430    -26.37430 
1.488435e-05     -4.71433     -4.71461 
5.953741e-05     -5.81922     -5.81982 
1.339592e-04     -5.94706     -5.94723 
2.381496e-04     -5.90668     -5.90672 
3.721088e-04     -6.32909     -6.32912 
5.358367e-04     -6.77891     -6.77894 
7.293333e-04     -7.09649     -7.09655 
9.525986e-04     -7.20130     -7.20144 
    0.001206     -7.42477     -7.42502 
    0.001488     -7.45689     -7.45736 
    0.001801     -7.69575     -7.69635 
    0.002143     -8.02710     -8.02781 
    0.002515     -8.19568     -8.19663 
    0.002917     -7.99134     -7.99288 
    0.003349     -8.07380     -8.07578 
    0.003810     -8.22142     -8.22414 
    0.004302     -8.27561     -8.27800 
    0.004823     -8.13275     -8.13477 
    0.005373     -8.13313     -8.13564 
    0.005954     -8.13489     -8.13803 
    0.006564     -8.12628     -8.12939 
    0.007204     -8.22995     -8.23320 
    0.007874     -8.20687     -8.21010 
    0.008573     -8.02511     -8.02817 
    0.009303     -8.07219     -8.07583 
    0.010062     -8.38527     -8.39039 
    0.010851     -8.28939     -8.29591 
    0.011669     -8.30817     -8.31548 
    0.012518     -8.49558     -8.50455 
    0.013396     -8.60693     -8.61975 
    0.014304     -8.67476     -8.69079 
    0.015242     -8.69240     -8.71101 
    0.016209     -8.82931     -8.85302 
    0.017206     -8.81839     -8.84687 
    0.018233     -8.80598     -8.86502 
    0.019290     -8.96590     -9.03358 
    0.020377     -9.13731     -9.22617 
    0.021493     -9.16558     -9.27438 
    0.022639     -9.09470     -9.19063 
    0.023815     -9.12445     -9.21164 
    0.025021     -9.12990     -9.23366 
    0.026256     -9.19240     -9.31293 
    0.027521     -9.24028     -9.35829 
    0.028816     -9.17609     -9.29896 
    0.030141     -9.18411     -9.31776 
    0.031495     -9.16194     -9.28619 
    0.032880     -9.17244     -9.30169 
    0.034294     -9.14360     -9.27253 
    0.035737     -9.09646     -9.22458 
    0.037211     -9.08895     -9.22842 
    0.038714     -9.04020     -9.18202 
    0.040247     -9.06134     -9.20275 
    0.041810     -9.06786     -9.21926 
    0.043403     -9.05244     -9.22313 
    0.045025     -9.07078     -9.24828 
    0.046677     -9.11442     -9.31745 
    0.048359     -9.10605     -9.34896 
    0.050071     -9.14908     -9.40073 
    0.051812     -9.18174     -9.46682 
    0.053584     -9.19400     -9.55131 
    0.055385     -9.23840     -9.60192 
    0.057215     -9.22212     -9.57077 
    0.059076     -9.18967     -9.56991 
    0.060966     -9.20692     -9.62483 
    0.062886     -9.27748     -9.77186 
    0.064836     -9.28559     -9.85369 
    0.066816     -9.27332     -9.91843 
    0.068825     -9.25432    -10.08273 
    0.070864     -9.25077    -10.20492 
    0.072933     -9.24898    -10.19634 
    0.075032     -9.23367    -10.23406 
    0.077160     -9.23037    -10.37638 
    0.079319     -9.22944    -10.52144 
    0.081507     -9.23577    -11.04902 
    0.083724     -9.22062    -11.78554 
    0.085972     -9.20861    -11.30920 
    0.088249     -9.21519    -11.02355 
    0.090556     -9.22030    -10.62964 
    0.092893     -9.22015    -10.96201 
    0.095260     -9.20525    -99.00000 
    0.097656     -9.20253    -99.00000 
    0.100082     -9.19169    -99.00000 
    0.102538     -9.19406    -99.00000 
    0.105024     -9.18204    -99.00000 
    0.107539     -9.19269    -99.00000 
    0.110085     -9.18829    -99.00000 
    0.112660     -9.18066    -99.00000 
    0.115264     -9.16531    -99.00000 
    0.117899     -9.15000    -99.00000 
    0.120563     -9.15933    -99.00000 
    0.123257     -9.15033    -99.00000 
    0.125981     -9.14212    -99.00000 
    0.128735     -9.14190    -99.00000 
    0.131518     -9.13324    -99.00000 
    0.134331     -9.13919    -99.00000 
    0.137174     -9.40633    -99.00000 
 
