
# version 50001

data_TS_45

loop_ 
_rlnMicrographMovieName #1 
_rlnTomoTiltMovieFrameCount #2 
_rlnTomoNominalStageTiltAngle #3 
_rlnTomoNominalTiltAxisAngle #4 
_rlnMicrographPreExposure #5 
_rlnTomoNominalDefocus #6 
_rlnCtfPowerSpectrum #7 
_rlnMicrographNameEven #8 
_rlnMicrographNameOdd #9 
_rlnMicrographName #10 
_rlnMicrographMetadata #11 
_rlnAccumMotionTotal #12 
_rlnAccumMotionEarly #13 
_rlnAccumMotionLate #14 
_rlnCtfImage #15 
_rlnDefocusU #16 
_rlnDefocusV #17 
_rlnCtfAstigmatism #18 
_rlnDefocusAngle #19 
_rlnCtfFigureOfMerit #20 
_rlnCtfMaxResolution #21 
_rlnCtfIceRingDensity #22 
_rlnTomoXTilt #23 
_rlnTomoYTilt #24 
_rlnTomoZRot #25 
_rlnTomoXShiftAngst #26 
_rlnTomoYShiftAngst #27 
_rlnCtfScalefactor #28 
frames/TS_45_039_-60.0.mrc           10    -59.99910    85.000000   117.000000     -3.00000 MotionCorr/job002/frames/TS_45_039_-60_0_PS.mrc MotionCorr/job002/frames/TS_45_039_-60_0_EVN.mrc MotionCorr/job002/frames/TS_45_039_-60_0_ODD.mrc MotionCorr/job002/frames/TS_45_039_-60_0.mrc MotionCorr/job002/frames/TS_45_039_-60_0.star     8.592580     0.000000     8.592580 CtfFind/job003/frames/TS_45_039_-60_0_PS.ctf:mrc 30184.977187 30367.377806    56.453125   147.233320     0.139703    14.931199     0.689400     -0.01203    -60.01455    85.031034    10.799671   162.034931     0.418965 
frames/TS_45_038_-57.0.mrc           10    -56.99900    85.000000   114.000000     -3.00000 MotionCorr/job002/frames/TS_45_038_-57_0_PS.mrc MotionCorr/job002/frames/TS_45_038_-57_0_EVN.mrc MotionCorr/job002/frames/TS_45_038_-57_0_ODD.mrc MotionCorr/job002/frames/TS_45_038_-57_0.mrc MotionCorr/job002/frames/TS_45_038_-57_0.star     7.885448     0.000000     7.885448 CtfFind/job003/frames/TS_45_038_-57_0_PS.ctf:mrc 30263.696913 30526.067145    12.480469   164.271195     0.153567    16.288582     0.521070     0.020584    -57.01593    85.031164    24.812546   151.967563     0.454990 
frames/TS_45_035_-54.0.mrc           10    -53.99990    85.000000   105.000000     -3.00000 MotionCorr/job002/frames/TS_45_035_-54_0_PS.mrc MotionCorr/job002/frames/TS_45_035_-54_0_EVN.mrc MotionCorr/job002/frames/TS_45_035_-54_0_ODD.mrc MotionCorr/job002/frames/TS_45_035_-54_0.mrc MotionCorr/job002/frames/TS_45_035_-54_0.star     6.229998     0.000000     6.229998 CtfFind/job003/frames/TS_45_035_-54_0_PS.ctf:mrc 30932.774204 31094.369256    76.355469   179.173730     0.112120    11.749141     0.622660 -9.06284e-04    -54.02055    85.055064    20.463192   149.499738     0.481085 
frames/TS_45_034_-51.0.mrc           10    -50.99930    85.000000   102.000000     -3.00000 MotionCorr/job002/frames/TS_45_034_-51_0_PS.mrc MotionCorr/job002/frames/TS_45_034_-51_0_EVN.mrc MotionCorr/job002/frames/TS_45_034_-51_0_ODD.mrc MotionCorr/job002/frames/TS_45_034_-51_0.mrc MotionCorr/job002/frames/TS_45_034_-51_0.star     6.296544     0.000000     6.296544 CtfFind/job003/frames/TS_45_034_-51_0_PS.ctf:mrc 31343.137821 31651.320457   129.976562   157.963333     0.121843     9.685102     0.793180     -0.01788    -51.01390    85.073672    40.973160   148.801866     0.517970 
frames/TS_45_031_-48.0.mrc           10    -47.99960    85.000000    93.000000     -3.00000 MotionCorr/job002/frames/TS_45_031_-48_0_PS.mrc MotionCorr/job002/frames/TS_45_031_-48_0_EVN.mrc MotionCorr/job002/frames/TS_45_031_-48_0_ODD.mrc MotionCorr/job002/frames/TS_45_031_-48_0.mrc MotionCorr/job002/frames/TS_45_031_-48_0.star     5.234620     0.000000     5.234620 CtfFind/job003/frames/TS_45_031_-48_0_PS.ctf:mrc 31643.858177 31993.067522   119.203125   144.485635     0.097664     9.954133     0.549880     -0.00166    -48.01483    85.074095    22.308951   137.333913     0.606717 
frames/TS_45_030_-45.0.mrc           10    -45.00000    85.000000    90.000000     -3.00000 MotionCorr/job002/frames/TS_45_030_-45_0_PS.mrc MotionCorr/job002/frames/TS_45_030_-45_0_EVN.mrc MotionCorr/job002/frames/TS_45_030_-45_0_ODD.mrc MotionCorr/job002/frames/TS_45_030_-45_0.mrc MotionCorr/job002/frames/TS_45_030_-45_0.star     5.459822     0.000000     5.459822 CtfFind/job003/frames/TS_45_030_-45_0_PS.ctf:mrc 30531.493990 30831.536352   261.048828   120.563760     0.092576    10.238537     0.809930     -0.01964    -45.01616    85.089818    34.311199   132.441702     0.630848 
frames/TS_45_027_-42.0.mrc           10    -41.99990    85.000000    81.000000     -3.00000 MotionCorr/job002/frames/TS_45_027_-42_0_PS.mrc MotionCorr/job002/frames/TS_45_027_-42_0_EVN.mrc MotionCorr/job002/frames/TS_45_027_-42_0_ODD.mrc MotionCorr/job002/frames/TS_45_027_-42_0.mrc MotionCorr/job002/frames/TS_45_027_-42_0.star     4.854730     0.000000     4.854730 CtfFind/job003/frames/TS_45_027_-42_0_PS.ctf:mrc 30583.278861 31167.622083   459.546875   134.255296     0.093988     9.685102     0.443340     0.018539    -42.00895    85.075776    19.420503   130.797355     0.676608 
frames/TS_45_026_-39.0.mrc           10    -38.99970    85.000000    78.000000     -3.00000 MotionCorr/job002/frames/TS_45_026_-39_0_PS.mrc MotionCorr/job002/frames/TS_45_026_-39_0_EVN.mrc MotionCorr/job002/frames/TS_45_026_-39_0_ODD.mrc MotionCorr/job002/frames/TS_45_026_-39_0.mrc MotionCorr/job002/frames/TS_45_026_-39_0.star     5.409872     0.000000     5.409872 CtfFind/job003/frames/TS_45_026_-39_0_PS.ctf:mrc 30486.325182 30752.566840   120.957031   137.355385     0.087948     9.954133     0.472020     0.007440    -39.00552    85.088435    23.682103   121.362101     0.624036 
frames/TS_45_023_-36.0.mrc           10    -35.99960    85.000000    69.000000     -3.00000 MotionCorr/job002/frames/TS_45_023_-36_0_PS.mrc MotionCorr/job002/frames/TS_45_023_-36_0_EVN.mrc MotionCorr/job002/frames/TS_45_023_-36_0_ODD.mrc MotionCorr/job002/frames/TS_45_023_-36_0.mrc MotionCorr/job002/frames/TS_45_023_-36_0.star     4.774667     0.000000     4.774667 CtfFind/job003/frames/TS_45_023_-36_0_PS.ctf:mrc 30746.548551 31078.717952   257.210938   150.623547     0.089998     8.431736     0.687840     0.019370    -35.99896    85.088258    12.517490   122.301311     0.680192 
frames/TS_45_022_-33.0.mrc           10    -32.99950    85.000000    66.000000     -3.00000 MotionCorr/job002/frames/TS_45_022_-33_0_PS.mrc MotionCorr/job002/frames/TS_45_022_-33_0_EVN.mrc MotionCorr/job002/frames/TS_45_022_-33_0_ODD.mrc MotionCorr/job002/frames/TS_45_022_-33_0.mrc MotionCorr/job002/frames/TS_45_022_-33_0.star     5.137040     0.000000     5.137040 CtfFind/job003/frames/TS_45_022_-33_0_PS.ctf:mrc 30409.590629 30663.914617   276.111328   116.918071     0.089506     9.685102     0.575870     0.018306    -33.00071    85.093568    11.530425   115.021279     0.828727 
frames/TS_45_019_-30.0.mrc           10    -29.99980    85.000000    57.000000     -3.00000 MotionCorr/job002/frames/TS_45_019_-30_0_PS.mrc MotionCorr/job002/frames/TS_45_019_-30_0_EVN.mrc MotionCorr/job002/frames/TS_45_019_-30_0_ODD.mrc MotionCorr/job002/frames/TS_45_019_-30_0.mrc MotionCorr/job002/frames/TS_45_019_-30_0.star     4.675718     0.000000     4.675718 CtfFind/job003/frames/TS_45_019_-30_0_PS.ctf:mrc 30014.567038 30828.903179   489.705078   155.509697     0.064687     7.963306     0.592660     0.010752    -29.98895    85.104377     3.000072   116.873428     0.782626 
frames/TS_45_018_-27.0.mrc           10    -27.00020    85.000000    54.000000     -3.00000 MotionCorr/job002/frames/TS_45_018_-27_0_PS.mrc MotionCorr/job002/frames/TS_45_018_-27_0_EVN.mrc MotionCorr/job002/frames/TS_45_018_-27_0_ODD.mrc MotionCorr/job002/frames/TS_45_018_-27_0.mrc MotionCorr/job002/frames/TS_45_018_-27_0.star     4.807011     0.000000     4.807011 CtfFind/job003/frames/TS_45_018_-27_0_PS.ctf:mrc 30385.852601 30756.291746   195.957031    61.061098     0.075174     8.431736     0.363980     0.032377    -26.98911    85.100802     -2.15657   104.894688     0.926396 
frames/TS_45_015_-24.0.mrc           10    -24.00010    85.000000    45.000000     -3.00000 MotionCorr/job002/frames/TS_45_015_-24_0_PS.mrc MotionCorr/job002/frames/TS_45_015_-24_0_EVN.mrc MotionCorr/job002/frames/TS_45_015_-24_0_ODD.mrc MotionCorr/job002/frames/TS_45_015_-24_0.mrc MotionCorr/job002/frames/TS_45_015_-24_0.star     3.667000     0.000000     3.667000 CtfFind/job003/frames/TS_45_015_-24_0_PS.ctf:mrc 30134.091006 30596.624168   303.271484   161.575670     0.057985     8.237903     0.658290     0.030762    -23.98706    85.115611     -0.21575   117.297437     0.990888 
frames/TS_45_014_-21.0.mrc           10    -20.99990    85.000000    42.000000     -3.00000 MotionCorr/job002/frames/TS_45_014_-21_0_PS.mrc MotionCorr/job002/frames/TS_45_014_-21_0_EVN.mrc MotionCorr/job002/frames/TS_45_014_-21_0_ODD.mrc MotionCorr/job002/frames/TS_45_014_-21_0.mrc MotionCorr/job002/frames/TS_45_014_-21_0.star     3.955090     0.000000     3.955090 CtfFind/job003/frames/TS_45_014_-21_0_PS.ctf:mrc 29855.369322 30520.516643   208.822266   145.973226     0.083637     7.166976     0.532380     0.034939    -20.98952    85.117965     -4.42169    98.961277     1.076058 
frames/TS_45_011_-18.0.mrc           10    -18.00180    85.000000    33.000000     -3.00000 MotionCorr/job002/frames/TS_45_011_-18_0_PS.mrc MotionCorr/job002/frames/TS_45_011_-18_0_EVN.mrc MotionCorr/job002/frames/TS_45_011_-18_0_ODD.mrc MotionCorr/job002/frames/TS_45_011_-18_0.mrc MotionCorr/job002/frames/TS_45_011_-18_0.star     3.986319     0.000000     3.986319 CtfFind/job003/frames/TS_45_011_-18_0_PS.ctf:mrc 29885.269826 30446.531942   107.960938   151.124654     0.068736     6.636089     0.897040     0.046129    -17.99765    85.119922     0.791619   110.727593     1.098487 
frames/TS_45_010_-15.0.mrc           10    -15.00370    85.000000    30.000000     -3.00000 MotionCorr/job002/frames/TS_45_010_-15_0_PS.mrc MotionCorr/job002/frames/TS_45_010_-15_0_EVN.mrc MotionCorr/job002/frames/TS_45_010_-15_0_ODD.mrc MotionCorr/job002/frames/TS_45_010_-15_0.mrc MotionCorr/job002/frames/TS_45_010_-15_0.star     3.307242     0.000000     3.307242 CtfFind/job003/frames/TS_45_010_-15_0_PS.ctf:mrc 30036.870814 30591.844399   260.017578   148.029678     0.081297     6.399085     0.697650     0.057344    -15.02715    85.125551     -0.90367    89.010869     1.170216 
frames/TS_45_007_-12.0.mrc           10    -11.99900    85.000000    21.000000     -3.00000 MotionCorr/job002/frames/TS_45_007_-12_0_PS.mrc MotionCorr/job002/frames/TS_45_007_-12_0_EVN.mrc MotionCorr/job002/frames/TS_45_007_-12_0_ODD.mrc MotionCorr/job002/frames/TS_45_007_-12_0.mrc MotionCorr/job002/frames/TS_45_007_-12_0.star     3.492253     0.000000     3.492253 CtfFind/job003/frames/TS_45_007_-12_0_PS.ctf:mrc 29856.398596 30475.874979   316.609375   143.083251     0.065772     6.286821     0.427230     0.033373    -12.01465    85.134021     3.607396   102.139136     1.185335 
frames/TS_45_006_-9.0.mrc           10     -8.99940    85.000000    18.000000     -3.00000 MotionCorr/job002/frames/TS_45_006_-9_0_PS.mrc MotionCorr/job002/frames/TS_45_006_-9_0_EVN.mrc MotionCorr/job002/frames/TS_45_006_-9_0_ODD.mrc MotionCorr/job002/frames/TS_45_006_-9_0.mrc MotionCorr/job002/frames/TS_45_006_-9_0.star     3.925788     0.000000     3.925788 CtfFind/job003/frames/TS_45_006_-9_0_PS.ctf:mrc 30114.380781 30271.707092    82.421875   140.845116     0.063995     5.643288     0.608890     0.027828     -9.02274    85.140903     0.622628    74.129589     1.129992 
frames/TS_45_003_-6.0.mrc           10     -6.00027    85.000000     9.000000     -3.00000 MotionCorr/job002/frames/TS_45_003_-6_0_PS.mrc MotionCorr/job002/frames/TS_45_003_-6_0_EVN.mrc MotionCorr/job002/frames/TS_45_003_-6_0_ODD.mrc MotionCorr/job002/frames/TS_45_003_-6_0.mrc MotionCorr/job002/frames/TS_45_003_-6_0.star     3.170520     0.000000     3.170520 CtfFind/job003/frames/TS_45_003_-6_0_PS.ctf:mrc 29821.532645 30321.867559   430.880859   118.301479     0.067746     5.513058     0.559750     0.031897     -6.02428    85.146265     1.762354    89.955591     1.115204 
frames/TS_45_002_-3.0.mrc           10     -3.00013    85.000000     6.000000     -3.00000 MotionCorr/job002/frames/TS_45_002_-3_0_PS.mrc MotionCorr/job002/frames/TS_45_002_-3_0_EVN.mrc MotionCorr/job002/frames/TS_45_002_-3_0_ODD.mrc MotionCorr/job002/frames/TS_45_002_-3_0.mrc MotionCorr/job002/frames/TS_45_002_-3_0.star     3.314824     0.000000     3.314824 CtfFind/job003/frames/TS_45_002_-3_0_PS.ctf:mrc 29854.094535 30262.105264   365.074219   133.924515     0.069776     6.399085     1.089520     0.035842     -3.00485    85.149729     2.735591    58.266078     0.906508 
frames/TS_45_000_-0.0.mrc           10     -0.00150    85.000000     0.000000     -3.00000 MotionCorr/job002/frames/TS_45_000_-0_0_PS.mrc MotionCorr/job002/frames/TS_45_000_-0_0_EVN.mrc MotionCorr/job002/frames/TS_45_000_-0_0_ODD.mrc MotionCorr/job002/frames/TS_45_000_-0_0.mrc MotionCorr/job002/frames/TS_45_000_-0_0.star     3.233639     1.442666     1.790974 CtfFind/job003/frames/TS_45_000_-0_0_PS.ctf:mrc 29836.547378 30644.781809   786.271484   137.232883     0.052775     6.456735     0.806020     0.021908     0.033959    85.157566     -5.89424     6.705923     1.195103 
frames/TS_45_001_3.0.mrc           10     2.999630    85.000000     3.000000     -3.00000 MotionCorr/job002/frames/TS_45_001_3_0_PS.mrc MotionCorr/job002/frames/TS_45_001_3_0_EVN.mrc MotionCorr/job002/frames/TS_45_001_3_0_ODD.mrc MotionCorr/job002/frames/TS_45_001_3_0.mrc MotionCorr/job002/frames/TS_45_001_3_0.star     3.240772     0.000000     3.240772 CtfFind/job003/frames/TS_45_001_3_0_PS.ctf:mrc 29853.552940 30426.705717   637.558594   149.914825     0.058736     5.733581     0.933930     0.019651     3.001181    85.160527     -4.53043    -47.26887     0.895520 
frames/TS_45_004_6.0.mrc           10     5.997770    85.000000    12.000000     -3.00000 MotionCorr/job002/frames/TS_45_004_6_0_PS.mrc MotionCorr/job002/frames/TS_45_004_6_0_EVN.mrc MotionCorr/job002/frames/TS_45_004_6_0_ODD.mrc MotionCorr/job002/frames/TS_45_004_6_0.mrc MotionCorr/job002/frames/TS_45_004_6_0.star     3.592058     0.000000     3.592058 CtfFind/job003/frames/TS_45_004_6_0_PS.ctf:mrc 29887.086773 30371.149117   532.402344   135.847891     0.076072     5.688076     0.565610     0.036014     6.031282    85.163993     -7.67184    -69.01261     0.437341 
frames/TS_45_005_9.0.mrc           10     8.996400    85.000000    15.000000     -3.00000 MotionCorr/job002/frames/TS_45_005_9_0_PS.mrc MotionCorr/job002/frames/TS_45_005_9_0_EVN.mrc MotionCorr/job002/frames/TS_45_005_9_0_ODD.mrc MotionCorr/job002/frames/TS_45_005_9_0.mrc MotionCorr/job002/frames/TS_45_005_9_0.star     2.902536     0.000000     2.902536 CtfFind/job003/frames/TS_45_005_9_0_PS.ctf:mrc 29948.141829 30222.707438   254.123047   158.081454     0.066596     6.178427     0.502750     0.031598     9.008375    85.173670     -9.04049    -69.42333     1.028761 
frames/TS_45_008_12.0.mrc           10    11.998500    85.000000    24.000000     -3.00000 MotionCorr/job002/frames/TS_45_008_12_0_PS.mrc MotionCorr/job002/frames/TS_45_008_12_0_EVN.mrc MotionCorr/job002/frames/TS_45_008_12_0_ODD.mrc MotionCorr/job002/frames/TS_45_008_12_0.mrc MotionCorr/job002/frames/TS_45_008_12_0.star     2.172041     0.000000     2.172041 CtfFind/job003/frames/TS_45_008_12_0_PS.ctf:mrc 30056.309768 30370.417873    75.744141   126.618823     0.081601     6.125620     0.853420     0.038379    12.011475    85.179112     -9.05811    -81.43268     1.148354 
frames/TS_45_009_15.0.mrc           10    14.999700    85.000000    27.000000     -3.00000 MotionCorr/job002/frames/TS_45_009_15_0_PS.mrc MotionCorr/job002/frames/TS_45_009_15_0_EVN.mrc MotionCorr/job002/frames/TS_45_009_15_0_ODD.mrc MotionCorr/job002/frames/TS_45_009_15_0.mrc MotionCorr/job002/frames/TS_45_009_15_0.star     2.457826     0.000000     2.457826 CtfFind/job003/frames/TS_45_009_15_0_PS.ctf:mrc 29882.071870 30514.196958   354.826172   140.511828     0.074173     5.156098     0.531900     0.020933    15.009354    85.188337     -7.13189    -85.57527     1.124037 
frames/TS_45_012_18.0.mrc           10    17.999800    85.000000    36.000000     -3.00000 MotionCorr/job002/frames/TS_45_012_18_0_PS.mrc MotionCorr/job002/frames/TS_45_012_18_0_EVN.mrc MotionCorr/job002/frames/TS_45_012_18_0_ODD.mrc MotionCorr/job002/frames/TS_45_012_18_0.mrc MotionCorr/job002/frames/TS_45_012_18_0.star     3.005063     0.000000     3.005063 CtfFind/job003/frames/TS_45_012_18_0_PS.ctf:mrc 30186.059985 30249.264945   265.964844    62.410792     0.072552     6.825691     0.830460     0.057978    17.993573    85.190141    -11.23569    -92.93039     1.043092 
frames/TS_45_013_21.0.mrc           10    20.999900    85.000000    39.000000     -3.00000 MotionCorr/job002/frames/TS_45_013_21_0_PS.mrc MotionCorr/job002/frames/TS_45_013_21_0_EVN.mrc MotionCorr/job002/frames/TS_45_013_21_0_ODD.mrc MotionCorr/job002/frames/TS_45_013_21_0.mrc MotionCorr/job002/frames/TS_45_013_21_0.star     2.604872     0.000000     2.604872 CtfFind/job003/frames/TS_45_013_21_0_PS.ctf:mrc 30162.317573 30395.637308   471.238281   144.153795     0.067512     6.761298     0.734180     0.043431    20.995845    85.202045    -11.44227   -107.53340     1.017466 
frames/TS_45_016_24.0.mrc           10    23.999600    85.000000    48.000000     -3.00000 MotionCorr/job002/frames/TS_45_016_24_0_PS.mrc MotionCorr/job002/frames/TS_45_016_24_0_EVN.mrc MotionCorr/job002/frames/TS_45_016_24_0_ODD.mrc MotionCorr/job002/frames/TS_45_016_24_0.mrc MotionCorr/job002/frames/TS_45_016_24_0.star     2.722364     0.000000     2.722364 CtfFind/job003/frames/TS_45_016_24_0_PS.ctf:mrc 30193.682161 30545.661689   430.949219    90.115581     0.085775     7.465600     0.442520     0.058022    23.978494    85.220015     -7.55475   -106.43245     1.001340 
frames/TS_45_017_27.0.mrc           10    26.999700    85.000000    51.000000     -3.00000 MotionCorr/job002/frames/TS_45_017_27_0_PS.mrc MotionCorr/job002/frames/TS_45_017_27_0_EVN.mrc MotionCorr/job002/frames/TS_45_017_27_0_ODD.mrc MotionCorr/job002/frames/TS_45_017_27_0.mrc MotionCorr/job002/frames/TS_45_017_27_0.star     2.314864     0.000000     2.314864 CtfFind/job003/frames/TS_45_017_27_0_PS.ctf:mrc 30047.874951 30373.067734   257.986328   150.278695     0.069649     7.313241     0.702630     0.028764    27.031366    85.229045     -8.95026   -120.53284     0.938698 
frames/TS_45_020_30.0.mrc           10    29.997800    85.000000    60.000000     -3.00000 MotionCorr/job002/frames/TS_45_020_30_0_PS.mrc MotionCorr/job002/frames/TS_45_020_30_0_EVN.mrc MotionCorr/job002/frames/TS_45_020_30_0_ODD.mrc MotionCorr/job002/frames/TS_45_020_30_0.mrc MotionCorr/job002/frames/TS_45_020_30_0.star     3.026604     0.000000     3.026604 CtfFind/job003/frames/TS_45_020_30_0_PS.ctf:mrc 29961.803046 30372.716344   224.128906   148.273897     0.054645     8.431736     0.980070     0.045070    29.997929    85.238036    -12.03320   -121.01645     0.756193 
frames/TS_45_021_33.0.mrc           10    32.998000    85.000000    63.000000     -3.00000 MotionCorr/job002/frames/TS_45_021_33_0_PS.mrc MotionCorr/job002/frames/TS_45_021_33_0_EVN.mrc MotionCorr/job002/frames/TS_45_021_33_0_ODD.mrc MotionCorr/job002/frames/TS_45_021_33_0.mrc MotionCorr/job002/frames/TS_45_021_33_0.star     3.399792     0.000000     3.399792 CtfFind/job003/frames/TS_45_021_33_0_PS.ctf:mrc 30175.091589 30264.249682    75.126953   119.466876     0.090675     7.790191     0.718600     0.051835    33.010993    85.242387     -9.91971   -132.69631     0.824298 
frames/TS_45_024_36.0.mrc           10    35.998100    85.000000    72.000000     -3.00000 MotionCorr/job002/frames/TS_45_024_36_0_PS.mrc MotionCorr/job002/frames/TS_45_024_36_0_EVN.mrc MotionCorr/job002/frames/TS_45_024_36_0_ODD.mrc MotionCorr/job002/frames/TS_45_024_36_0.mrc MotionCorr/job002/frames/TS_45_024_36_0.star     4.101934     0.000000     4.101934 CtfFind/job003/frames/TS_45_024_36_0_PS.ctf:mrc 30096.617423 30611.394766   347.212891   123.319671     0.091184     8.740214     0.584720     0.048130    36.023520    85.249467    -12.27455   -130.31300     0.818836 
frames/TS_45_025_39.0.mrc           10    38.996700    85.000000    75.000000     -3.00000 MotionCorr/job002/frames/TS_45_025_39_0_PS.mrc MotionCorr/job002/frames/TS_45_025_39_0_EVN.mrc MotionCorr/job002/frames/TS_45_025_39_0_ODD.mrc MotionCorr/job002/frames/TS_45_025_39_0.mrc MotionCorr/job002/frames/TS_45_025_39_0.star     4.374145     0.000000     4.374145 CtfFind/job003/frames/TS_45_025_39_0_PS.ctf:mrc 30275.496332 30711.842201   381.396484   148.056766     0.086312     9.817775     0.477290     0.082167    39.032935    85.280058     -0.11984   -135.62794     0.769485 
frames/TS_45_028_42.0.mrc           10    41.996900    85.000000    84.000000     -3.00000 MotionCorr/job002/frames/TS_45_028_42_0_PS.mrc MotionCorr/job002/frames/TS_45_028_42_0_EVN.mrc MotionCorr/job002/frames/TS_45_028_42_0_ODD.mrc MotionCorr/job002/frames/TS_45_028_42_0.mrc MotionCorr/job002/frames/TS_45_028_42_0.star     4.127412     0.000000     4.127412 CtfFind/job003/frames/TS_45_028_42_0_PS.ctf:mrc 30254.927335 30833.682486   242.345703   169.923456     0.100596    10.238537     0.839120     0.083367    42.032038    85.285107    -18.83630   -138.24933     0.726270 
frames/TS_45_029_45.0.mrc           10    44.997000    85.000000    87.000000     -3.00000 MotionCorr/job002/frames/TS_45_029_45_0_PS.mrc MotionCorr/job002/frames/TS_45_029_45_0_EVN.mrc MotionCorr/job002/frames/TS_45_029_45_0_ODD.mrc MotionCorr/job002/frames/TS_45_029_45_0.mrc MotionCorr/job002/frames/TS_45_029_45_0.star     5.118741     0.000000     5.118741 CtfFind/job003/frames/TS_45_029_45_0_PS.ctf:mrc 30349.072699 30552.237942   136.535156   133.422171     0.109358     9.954133     0.542830     0.091533    45.036186    85.299614     -7.74882   -146.07484     0.676038 
frames/TS_45_032_48.0.mrc           10    47.996100    85.000000    96.000000     -3.00000 MotionCorr/job002/frames/TS_45_032_48_0_PS.mrc MotionCorr/job002/frames/TS_45_032_48_0_EVN.mrc MotionCorr/job002/frames/TS_45_032_48_0_ODD.mrc MotionCorr/job002/frames/TS_45_032_48_0.mrc MotionCorr/job002/frames/TS_45_032_48_0.star     5.879206     0.000000     5.879206 CtfFind/job003/frames/TS_45_032_48_0_PS.ctf:mrc 30140.279185 30189.758008    90.181641   139.307544     0.137888    11.026116     0.547000     0.099112    48.046007    85.306560    -25.53491   -154.88941     0.526119 
frames/TS_45_033_51.0.mrc           10    50.996300    85.000000    99.000000     -3.00000 MotionCorr/job002/frames/TS_45_033_51_0_PS.mrc MotionCorr/job002/frames/TS_45_033_51_0_EVN.mrc MotionCorr/job002/frames/TS_45_033_51_0_ODD.mrc MotionCorr/job002/frames/TS_45_033_51_0.mrc MotionCorr/job002/frames/TS_45_033_51_0.star     6.903821     0.000000     6.903821 CtfFind/job003/frames/TS_45_033_51_0_PS.ctf:mrc 30221.869064 30587.409926   308.355469   153.935459     0.122605    11.198400     0.831490     0.066891    51.045010    85.291725     -9.74518   -163.33693     0.386049 
frames/TS_45_036_54.0.mrc           10    53.996900    85.000000   108.000000     -3.00000 MotionCorr/job002/frames/TS_45_036_54_0_PS.mrc MotionCorr/job002/frames/TS_45_036_54_0_EVN.mrc MotionCorr/job002/frames/TS_45_036_54_0_ODD.mrc MotionCorr/job002/frames/TS_45_036_54_0.mrc MotionCorr/job002/frames/TS_45_036_54_0.star     7.638391     0.000000     7.638391 CtfFind/job003/frames/TS_45_036_54_0_PS.ctf:mrc 30114.136715 30210.438408    59.330078   148.558249     0.149805    14.626481     0.689700     0.136428    54.053615    85.358136    -22.00925   -168.69141     0.427032 
frames/TS_45_037_57.0.mrc           10    56.996500    85.000000   111.000000     -3.00000 MotionCorr/job002/frames/TS_45_037_57_0_PS.mrc MotionCorr/job002/frames/TS_45_037_57_0_EVN.mrc MotionCorr/job002/frames/TS_45_037_57_0_ODD.mrc MotionCorr/job002/frames/TS_45_037_57_0.mrc MotionCorr/job002/frames/TS_45_037_57_0.star     9.203906     0.000000     9.203906 CtfFind/job003/frames/TS_45_037_57_0_PS.ctf:mrc 30165.875347 30382.551136    31.580078   158.423601     0.163641    11.198400     0.647150     0.050501    57.049500    85.298204    -13.77549   -176.57181     0.326001 
frames/TS_45_040_60.0.mrc           10    59.995200    85.000000   120.000000     -3.00000 MotionCorr/job002/frames/TS_45_040_60_0_PS.mrc MotionCorr/job002/frames/TS_45_040_60_0_EVN.mrc MotionCorr/job002/frames/TS_45_040_60_0_ODD.mrc MotionCorr/job002/frames/TS_45_040_60_0.mrc MotionCorr/job002/frames/TS_45_040_60_0.star     9.473847     0.000000     9.473847 CtfFind/job003/frames/TS_45_040_60_0_PS.ctf:mrc 30573.403092 30673.292472    78.396484   140.732221     0.168395    13.522596     0.521260     0.049958    60.052844    85.306077    -25.12964   -185.18551     0.403598 
 
