
# version 50001

data_TS_54

loop_ 
_rlnMicrographMovieName #1 
_rlnTomoTiltMovieFrameCount #2 
_rlnTomoNominalStageTiltAngle #3 
_rlnTomoNominalTiltAxisAngle #4 
_rlnMicrographPreExposure #5 
_rlnTomoNominalDefocus #6 
_rlnCtfPowerSpectrum #7 
_rlnMicrographNameEven #8 
_rlnMicrographNameOdd #9 
_rlnMicrographName #10 
_rlnMicrographMetadata #11 
_rlnAccumMotionTotal #12 
_rlnAccumMotionEarly #13 
_rlnAccumMotionLate #14 
_rlnCtfImage #15 
_rlnDefocusU #16 
_rlnDefocusV #17 
_rlnCtfAstigmatism #18 
_rlnDefocusAngle #19 
_rlnCtfFigureOfMerit #20 
_rlnCtfMaxResolution #21 
_rlnCtfIceRingDensity #22 
_rlnTomoXTilt #23 
_rlnTomoYTilt #24 
_rlnTomoZRot #25 
_rlnTomoXShiftAngst #26 
_rlnTomoYShiftAngst #27 
_rlnCtfScalefactor #28 
frames/TS_54_039_-60.0.mrc           10    -59.99910    85.000000   117.000000     -1.50000 MotionCorr/job002/frames/TS_54_039_-60_0_PS.mrc MotionCorr/job002/frames/TS_54_039_-60_0_EVN.mrc MotionCorr/job002/frames/TS_54_039_-60_0_ODD.mrc MotionCorr/job002/frames/TS_54_039_-60_0.mrc MotionCorr/job002/frames/TS_54_039_-60_0.star    15.025143     0.000000    15.025143 CtfFind/job003/frames/TS_54_039_-60_0_PS.ctf:mrc 18168.853285 18231.414641    42.291016   122.473218     0.128431    12.573642     1.218770     0.363148    -54.95013    91.581990   -350.43784  -1046.39023     -0.05191 
frames/TS_54_038_-57.0.mrc           10    -56.99900    85.000000   114.000000     -1.50000 MotionCorr/job002/frames/TS_54_038_-57_0_PS.mrc MotionCorr/job002/frames/TS_54_038_-57_0_EVN.mrc MotionCorr/job002/frames/TS_54_038_-57_0_ODD.mrc MotionCorr/job002/frames/TS_54_038_-57_0.mrc MotionCorr/job002/frames/TS_54_038_-57_0.star    15.521387     0.000000    15.521387 CtfFind/job003/frames/TS_54_038_-57_0_PS.ctf:mrc 16878.158920 17045.850028   109.835938   138.769360     0.125754    25.000000     0.590680     0.065170    -56.91619    69.361348    82.046057   -233.20639     -0.04330 
frames/TS_54_035_-54.0.mrc           10    -53.99940    85.000000   105.000000     -1.50000 MotionCorr/job002/frames/TS_54_035_-54_0_PS.mrc MotionCorr/job002/frames/TS_54_035_-54_0_EVN.mrc MotionCorr/job002/frames/TS_54_035_-54_0_ODD.mrc MotionCorr/job002/frames/TS_54_035_-54_0.mrc MotionCorr/job002/frames/TS_54_035_-54_0.star    12.397099     0.000000    12.397099 CtfFind/job003/frames/TS_54_035_-54_0_PS.ctf:mrc 16375.519224 16564.455669    98.336914    94.118759     0.141127    25.000000     0.655740     -0.07066    -53.78378    83.110819     -6.35289   -171.31690     0.038227 
frames/TS_54_034_-51.0.mrc           10    -50.99930    85.000000   102.000000     -1.50000 MotionCorr/job002/frames/TS_54_034_-51_0_PS.mrc MotionCorr/job002/frames/TS_54_034_-51_0_EVN.mrc MotionCorr/job002/frames/TS_54_034_-51_0_ODD.mrc MotionCorr/job002/frames/TS_54_034_-51_0.mrc MotionCorr/job002/frames/TS_54_034_-51_0.star    12.299811     0.000000    12.299811 CtfFind/job003/frames/TS_54_034_-51_0_PS.ctf:mrc 15895.886204 16053.334933   182.346680   -140.10872     0.163578    11.559638     1.139510     0.075853    -51.02305    84.147314    -17.04312   -125.20192     0.057994 
frames/TS_54_031_-48.0.mrc           10    -47.99960    85.000000    93.000000     -1.50000 MotionCorr/job002/frames/TS_54_031_-48_0_PS.mrc MotionCorr/job002/frames/TS_54_031_-48_0_EVN.mrc MotionCorr/job002/frames/TS_54_031_-48_0_ODD.mrc MotionCorr/job002/frames/TS_54_031_-48_0.mrc MotionCorr/job002/frames/TS_54_031_-48_0.star     9.515987     0.000000     9.515987 CtfFind/job003/frames/TS_54_031_-48_0_PS.ctf:mrc 16025.223945 16217.182579    87.428711   -175.35859     0.100363    10.539670     0.870450     -0.09553    -48.13819    84.553108    -14.44198   -114.36490     0.218049 
frames/TS_54_030_-45.0.mrc           10    -45.00000    85.000000    90.000000     -1.50000 MotionCorr/job002/frames/TS_54_030_-45_0_PS.mrc MotionCorr/job002/frames/TS_54_030_-45_0_EVN.mrc MotionCorr/job002/frames/TS_54_030_-45_0_ODD.mrc MotionCorr/job002/frames/TS_54_030_-45_0.mrc MotionCorr/job002/frames/TS_54_030_-45_0.star    10.815727     0.000000    10.815727 CtfFind/job003/frames/TS_54_030_-45_0_PS.ctf:mrc 15867.082689 16039.957057    85.271484   137.365429     0.154878    10.539670     0.768430     -0.33545    -45.14990    84.880937     -8.57907    -92.30838     0.379638 
frames/TS_54_027_-42.0.mrc           10    -42.00040    85.000000    81.000000     -1.50000 MotionCorr/job002/frames/TS_54_027_-42_0_PS.mrc MotionCorr/job002/frames/TS_54_027_-42_0_EVN.mrc MotionCorr/job002/frames/TS_54_027_-42_0_ODD.mrc MotionCorr/job002/frames/TS_54_027_-42_0.mrc MotionCorr/job002/frames/TS_54_027_-42_0.star     8.590184     0.000000     8.590184 CtfFind/job003/frames/TS_54_027_-42_0_PS.ctf:mrc 15844.705991 16183.114398   166.293945   156.909771     0.125000    10.539670     0.725910     -0.31012    -42.15688    84.952172     -3.40364    -72.97378     0.496182 
frames/TS_54_026_-39.0.mrc           10    -39.00020    85.000000    78.000000     -1.50000 MotionCorr/job002/frames/TS_54_026_-39_0_PS.mrc MotionCorr/job002/frames/TS_54_026_-39_0_EVN.mrc MotionCorr/job002/frames/TS_54_026_-39_0_ODD.mrc MotionCorr/job002/frames/TS_54_026_-39_0.mrc MotionCorr/job002/frames/TS_54_026_-39_0.star     8.366590     0.000000     8.366590 CtfFind/job003/frames/TS_54_026_-39_0_PS.ctf:mrc 15835.494885 15963.314946   143.519531   116.897275     0.117415    11.559638     0.662560     -0.24289    -39.17205    84.966793     3.769694    -55.86775     0.445789 
frames/TS_54_023_-36.0.mrc           10    -36.00010    85.000000    69.000000     -1.50000 MotionCorr/job002/frames/TS_54_023_-36_0_PS.mrc MotionCorr/job002/frames/TS_54_023_-36_0_EVN.mrc MotionCorr/job002/frames/TS_54_023_-36_0_ODD.mrc MotionCorr/job002/frames/TS_54_023_-36_0.mrc MotionCorr/job002/frames/TS_54_023_-36_0.star     7.357381     0.000000     7.357381 CtfFind/job003/frames/TS_54_023_-36_0_PS.ctf:mrc 15903.768870 16092.479640   288.270508   140.250259     0.090527     9.817775     0.500270     -0.19758    -36.16136    84.985343     -5.97497    -58.32978     0.542072 
frames/TS_54_022_-33.0.mrc           10    -32.99950    85.000000    66.000000     -1.50000 MotionCorr/job002/frames/TS_54_022_-33_0_PS.mrc MotionCorr/job002/frames/TS_54_022_-33_0_EVN.mrc MotionCorr/job002/frames/TS_54_022_-33_0_ODD.mrc MotionCorr/job002/frames/TS_54_022_-33_0.mrc MotionCorr/job002/frames/TS_54_022_-33_0.star     8.160680     0.000000     8.160680 CtfFind/job003/frames/TS_54_022_-33_0_PS.ctf:mrc 15587.031876 16033.324185   294.715820   161.788784     0.103930     8.532114     0.868000     -0.23373    -33.18456    85.030557     -8.52641    -48.05066     0.717197 
frames/TS_54_019_-30.0.mrc           10    -30.00030    85.000000    57.000000     -1.50000 MotionCorr/job002/frames/TS_54_019_-30_0_PS.mrc MotionCorr/job002/frames/TS_54_019_-30_0_EVN.mrc MotionCorr/job002/frames/TS_54_019_-30_0_ODD.mrc MotionCorr/job002/frames/TS_54_019_-30_0.mrc MotionCorr/job002/frames/TS_54_019_-30_0.star     6.365004     0.000000     6.365004 CtfFind/job003/frames/TS_54_019_-30_0_PS.ctf:mrc 15686.937518 15896.375481   301.435547   151.017622     0.092739     9.430231     0.658210     -0.07681    -30.17633    84.976033    -12.48328    -43.00317     0.740616 
frames/TS_54_018_-27.0.mrc           10    -27.00170    85.000000    54.000000     -1.50000 MotionCorr/job002/frames/TS_54_018_-27_0_PS.mrc MotionCorr/job002/frames/TS_54_018_-27_0_EVN.mrc MotionCorr/job002/frames/TS_54_018_-27_0_ODD.mrc MotionCorr/job002/frames/TS_54_018_-27_0.mrc MotionCorr/job002/frames/TS_54_018_-27_0.star     7.058289     0.000000     7.058289 CtfFind/job003/frames/TS_54_018_-27_0_PS.ctf:mrc 15307.028143 15861.198284   325.508789   -175.70083     0.086891     9.072121     0.527930     -0.16479    -27.18826    85.041462    -19.80411    -38.51150     0.808325 
frames/TS_54_015_-24.0.mrc           10    -24.00010    85.000000    45.000000     -1.50000 MotionCorr/job002/frames/TS_54_015_-24_0_PS.mrc MotionCorr/job002/frames/TS_54_015_-24_0_EVN.mrc MotionCorr/job002/frames/TS_54_015_-24_0_ODD.mrc MotionCorr/job002/frames/TS_54_015_-24_0.mrc MotionCorr/job002/frames/TS_54_015_-24_0.star     6.120384     0.000000     6.120384 CtfFind/job003/frames/TS_54_015_-24_0_PS.ctf:mrc 15350.831735 15870.096470   771.327148    45.401813     0.071205     7.388635     0.564480     -0.08657    -24.17012    85.027840    -21.76385    -36.53992     0.916433 
frames/TS_54_014_-21.0.mrc           10    -21.00040    85.000000    42.000000     -1.50000 MotionCorr/job002/frames/TS_54_014_-21_0_PS.mrc MotionCorr/job002/frames/TS_54_014_-21_0_EVN.mrc MotionCorr/job002/frames/TS_54_014_-21_0_ODD.mrc MotionCorr/job002/frames/TS_54_014_-21_0.mrc MotionCorr/job002/frames/TS_54_014_-21_0.star     5.664473     0.000000     5.664473 CtfFind/job003/frames/TS_54_014_-21_0_PS.ctf:mrc 15412.335250 15806.557344   199.931641   126.998888     0.075342     7.963306     0.662400     -0.09146    -21.12991    85.043832    -24.30642    -37.34656     0.899307 
frames/TS_54_011_-18.0.mrc           10    -18.00180    85.000000    33.000000     -1.50000 MotionCorr/job002/frames/TS_54_011_-18_0_PS.mrc MotionCorr/job002/frames/TS_54_011_-18_0_EVN.mrc MotionCorr/job002/frames/TS_54_011_-18_0_ODD.mrc MotionCorr/job002/frames/TS_54_011_-18_0.mrc MotionCorr/job002/frames/TS_54_011_-18_0.star     5.176144     0.000000     5.176144 CtfFind/job003/frames/TS_54_011_-18_0_PS.ctf:mrc 15258.282013 15354.551730     0.000000   -173.67089     0.088412     6.958229     0.985870     -0.08636    -18.01989    85.044026    -18.31039    -23.77157     1.060447 
frames/TS_54_010_-15.0.mrc           10    -15.00320    85.000000    30.000000     -1.50000 MotionCorr/job002/frames/TS_54_010_-15_0_PS.mrc MotionCorr/job002/frames/TS_54_010_-15_0_EVN.mrc MotionCorr/job002/frames/TS_54_010_-15_0_ODD.mrc MotionCorr/job002/frames/TS_54_010_-15_0.mrc MotionCorr/job002/frames/TS_54_010_-15_0.star     5.213246     0.000000     5.213246 CtfFind/job003/frames/TS_54_010_-15_0_PS.ctf:mrc 15260.134985 15445.773023    65.493164   109.575638     0.081766     6.636089     0.901650     -0.11498    -14.98431    85.057335    -21.43455    -32.70400     1.169888 
frames/TS_54_007_-12.0.mrc           10    -11.99850    85.000000    21.000000     -1.50000 MotionCorr/job002/frames/TS_54_007_-12_0_PS.mrc MotionCorr/job002/frames/TS_54_007_-12_0_EVN.mrc MotionCorr/job002/frames/TS_54_007_-12_0_ODD.mrc MotionCorr/job002/frames/TS_54_007_-12_0.mrc MotionCorr/job002/frames/TS_54_007_-12_0.star     4.194469     0.000000     4.194469 CtfFind/job003/frames/TS_54_007_-12_0_PS.ctf:mrc 15276.203208 15419.112055     0.001953   102.985671     0.097848     5.874570     0.694140     -0.13811    -11.98482    85.063476    -19.50502    -14.81791     1.393295 
frames/TS_54_006_-9.0.mrc           10     -8.99940    85.000000    18.000000     -1.50000 MotionCorr/job002/frames/TS_54_006_-9_0_PS.mrc MotionCorr/job002/frames/TS_54_006_-9_0_EVN.mrc MotionCorr/job002/frames/TS_54_006_-9_0_ODD.mrc MotionCorr/job002/frames/TS_54_006_-9_0.mrc MotionCorr/job002/frames/TS_54_006_-9_0.star     4.226744     0.000000     4.226744 CtfFind/job003/frames/TS_54_006_-9_0_PS.ctf:mrc 15336.493931 15446.428610   126.666992   178.939269     0.087386     5.429527     0.606490     -0.13655     -8.93773    85.046823    -18.57607    -28.82054     0.437510 
frames/TS_54_003_-6.0.mrc           10     -5.99876    85.000000     9.000000     -1.50000 MotionCorr/job002/frames/TS_54_003_-6_0_PS.mrc MotionCorr/job002/frames/TS_54_003_-6_0_EVN.mrc MotionCorr/job002/frames/TS_54_003_-6_0_ODD.mrc MotionCorr/job002/frames/TS_54_003_-6_0.mrc MotionCorr/job002/frames/TS_54_003_-6_0.star     4.304615     0.000000     4.304615 CtfFind/job003/frames/TS_54_003_-6_0_PS.ctf:mrc 15102.208350 15346.142982   210.468750   122.797960     0.094744     5.119268     1.053120     -0.07965     -5.94128    85.064109    -18.40879     -5.10829     1.478033 
frames/TS_54_002_-3.0.mrc           10     -2.99963    85.000000     6.000000     -1.50000 MotionCorr/job002/frames/TS_54_002_-3_0_PS.mrc MotionCorr/job002/frames/TS_54_002_-3_0_EVN.mrc MotionCorr/job002/frames/TS_54_002_-3_0_ODD.mrc MotionCorr/job002/frames/TS_54_002_-3_0.mrc MotionCorr/job002/frames/TS_54_002_-3_0.star     3.218856     0.000000     3.218856 CtfFind/job003/frames/TS_54_002_-3_0_PS.ctf:mrc 15132.815093 15362.009144   211.693359   133.200654     0.098356     5.082961     0.615130     -0.04985     -2.92895    85.065290    -22.83255    -28.63081     1.765471 
frames/TS_54_000_-0.0.mrc           10 -5.00000e-04    85.000000     0.000000     -1.50000 MotionCorr/job002/frames/TS_54_000_-0_0_PS.mrc MotionCorr/job002/frames/TS_54_000_-0_0_EVN.mrc MotionCorr/job002/frames/TS_54_000_-0_0_ODD.mrc MotionCorr/job002/frames/TS_54_000_-0_0.mrc MotionCorr/job002/frames/TS_54_000_-0_0.star     3.898448     2.142234     1.756215 CtfFind/job003/frames/TS_54_000_-0_0_PS.ctf:mrc 15195.537931 15434.915322   265.158203   119.404594     0.093887     5.119268     0.826400     -0.01288     0.068147    85.069008    -14.79948    -35.38173     1.775374 
frames/TS_54_001_3.0.mrc           10     2.999630    85.000000     3.000000     -1.50000 MotionCorr/job002/frames/TS_54_001_3_0_PS.mrc MotionCorr/job002/frames/TS_54_001_3_0_EVN.mrc MotionCorr/job002/frames/TS_54_001_3_0_ODD.mrc MotionCorr/job002/frames/TS_54_001_3_0.mrc MotionCorr/job002/frames/TS_54_001_3_0.star     2.820754     0.000000     2.820754 CtfFind/job003/frames/TS_54_001_3_0_PS.ctf:mrc 15172.470542 15430.377139   273.129883   118.370745     0.093105     5.231369     0.492000     -0.04620     3.081898    85.076629    -23.31939    -41.13239     1.663159 
frames/TS_54_004_6.0.mrc           10     5.999760    85.000000    12.000000     -1.50000 MotionCorr/job002/frames/TS_54_004_6_0_PS.mrc MotionCorr/job002/frames/TS_54_004_6_0_EVN.mrc MotionCorr/job002/frames/TS_54_004_6_0_ODD.mrc MotionCorr/job002/frames/TS_54_004_6_0.mrc MotionCorr/job002/frames/TS_54_004_6_0.star     3.085074     0.000000     3.085074 CtfFind/job003/frames/TS_54_004_6_0_PS.ctf:mrc 14940.873750 15300.435401   409.930664   133.800240     0.087902     5.156098     1.092580     -0.10795     6.104057    85.089445    -22.20444    -46.62105     1.549251 
frames/TS_54_005_9.0.mrc           10     8.999400    85.000000    15.000000     -1.50000 MotionCorr/job002/frames/TS_54_005_9_0_PS.mrc MotionCorr/job002/frames/TS_54_005_9_0_EVN.mrc MotionCorr/job002/frames/TS_54_005_9_0_ODD.mrc MotionCorr/job002/frames/TS_54_005_9_0.mrc MotionCorr/job002/frames/TS_54_005_9_0.star     2.978818     0.000000     2.978818 CtfFind/job003/frames/TS_54_005_9_0_PS.ctf:mrc 15009.182258 15802.733116   461.936523   132.249920     0.103138     5.269835     0.700960     -0.15136     9.090177    85.100313    -20.01777    -34.77985     0.731902 
frames/TS_54_008_12.0.mrc           10    12.000500    85.000000    24.000000     -1.50000 MotionCorr/job002/frames/TS_54_008_12_0_PS.mrc MotionCorr/job002/frames/TS_54_008_12_0_EVN.mrc MotionCorr/job002/frames/TS_54_008_12_0_ODD.mrc MotionCorr/job002/frames/TS_54_008_12_0.mrc MotionCorr/job002/frames/TS_54_008_12_0.star     3.162589     0.000000     3.162589 CtfFind/job003/frames/TS_54_008_12_0_PS.ctf:mrc 15124.788213 15634.101762    99.137695    83.787391     0.076736     6.178427     0.835920     -0.19246    12.118936    85.108266    -19.35089    -43.32301     1.081877 
frames/TS_54_009_15.0.mrc           10    15.000200    85.000000    27.000000     -1.50000 MotionCorr/job002/frames/TS_54_009_15_0_PS.mrc MotionCorr/job002/frames/TS_54_009_15_0_EVN.mrc MotionCorr/job002/frames/TS_54_009_15_0_ODD.mrc MotionCorr/job002/frames/TS_54_009_15_0.mrc MotionCorr/job002/frames/TS_54_009_15_0.star     3.562077     0.000000     3.562077 CtfFind/job003/frames/TS_54_009_15_0_PS.ctf:mrc 15116.093737 15429.733842   238.048828   131.025722     0.093326     6.232153     1.033810     -0.16296    15.074687    85.128571    -16.04864    -27.58620     1.217559 
frames/TS_54_012_18.0.mrc           10    18.000800    85.000000    36.000000     -1.50000 MotionCorr/job002/frames/TS_54_012_18_0_PS.mrc MotionCorr/job002/frames/TS_54_012_18_0_EVN.mrc MotionCorr/job002/frames/TS_54_012_18_0_ODD.mrc MotionCorr/job002/frames/TS_54_012_18_0.mrc MotionCorr/job002/frames/TS_54_012_18_0.star     4.641988     0.000000     4.641988 CtfFind/job003/frames/TS_54_012_18_0_PS.ctf:mrc 14837.240565 15794.989401   369.802734   132.527293     0.075756     6.761298     0.585740     -0.07077    17.976166    85.114888    -14.84884    -39.95236     0.714314 
frames/TS_54_013_21.0.mrc           10    21.000400    85.000000    39.000000     -1.50000 MotionCorr/job002/frames/TS_54_013_21_0_PS.mrc MotionCorr/job002/frames/TS_54_013_21_0_EVN.mrc MotionCorr/job002/frames/TS_54_013_21_0_ODD.mrc MotionCorr/job002/frames/TS_54_013_21_0.mrc MotionCorr/job002/frames/TS_54_013_21_0.star     3.758693     0.000000     3.758693 CtfFind/job003/frames/TS_54_013_21_0_PS.ctf:mrc 15369.482435 16456.388404   339.397461   133.688856     0.069856     6.515432     0.798500     -0.16409    20.986693    85.073981    -12.00625    -27.88800     0.439382 
frames/TS_54_016_24.0.mrc           10    24.000100    85.000000    48.000000     -1.50000 MotionCorr/job002/frames/TS_54_016_24_0_PS.mrc MotionCorr/job002/frames/TS_54_016_24_0_EVN.mrc MotionCorr/job002/frames/TS_54_016_24_0_ODD.mrc MotionCorr/job002/frames/TS_54_016_24_0.mrc MotionCorr/job002/frames/TS_54_016_24_0.star     5.241663     0.000000     5.241663 CtfFind/job003/frames/TS_54_016_24_0_PS.ctf:mrc 15040.106774 15781.140044   393.947266   168.145510     0.088287     7.388635     0.645080     -0.09396    23.965721    85.145059    -11.84095    -38.04690     0.796777 
frames/TS_54_017_27.0.mrc           10    26.999700    85.000000    51.000000     -1.50000 MotionCorr/job002/frames/TS_54_017_27_0_PS.mrc MotionCorr/job002/frames/TS_54_017_27_0_EVN.mrc MotionCorr/job002/frames/TS_54_017_27_0_ODD.mrc MotionCorr/job002/frames/TS_54_017_27_0.mrc MotionCorr/job002/frames/TS_54_017_27_0.star     4.953899     0.000000     4.953899 CtfFind/job003/frames/TS_54_017_27_0_PS.ctf:mrc 14838.893042 15193.315670    88.263672   -177.65081     0.084095     7.963306     0.643290     -0.07623    27.037676    85.202077    -10.95944    -24.61633     0.798445 
frames/TS_54_020_30.0.mrc           10    29.999300    85.000000    60.000000     -1.50000 MotionCorr/job002/frames/TS_54_020_30_0_PS.mrc MotionCorr/job002/frames/TS_54_020_30_0_EVN.mrc MotionCorr/job002/frames/TS_54_020_30_0_ODD.mrc MotionCorr/job002/frames/TS_54_020_30_0.mrc MotionCorr/job002/frames/TS_54_020_30_0.star     5.211208     0.000000     5.211208 CtfFind/job003/frames/TS_54_020_30_0_PS.ctf:mrc 15437.610820 15965.376091   444.293945   102.384158     0.091226     7.963306     0.674620     -0.02063    30.021990    85.202979    -17.38768    -32.02565     0.662607 
frames/TS_54_021_33.0.mrc           10    32.999500    85.000000    63.000000     -1.50000 MotionCorr/job002/frames/TS_54_021_33_0_PS.mrc MotionCorr/job002/frames/TS_54_021_33_0_EVN.mrc MotionCorr/job002/frames/TS_54_021_33_0_ODD.mrc MotionCorr/job002/frames/TS_54_021_33_0.mrc MotionCorr/job002/frames/TS_54_021_33_0.star     5.540879     0.000000     5.540879 CtfFind/job003/frames/TS_54_021_33_0_PS.ctf:mrc 15728.404439 15988.032185   117.846680   112.965293     0.070125     9.307761     1.282160     -0.06398    33.012729    85.215369    -10.49781    -16.34317     0.591146 
frames/TS_54_024_36.0.mrc           10    36.000100    85.000000    72.000000     -1.50000 MotionCorr/job002/frames/TS_54_024_36_0_PS.mrc MotionCorr/job002/frames/TS_54_024_36_0_EVN.mrc MotionCorr/job002/frames/TS_54_024_36_0_ODD.mrc MotionCorr/job002/frames/TS_54_024_36_0.mrc MotionCorr/job002/frames/TS_54_024_36_0.star     6.820884     0.000000     6.820884 CtfFind/job003/frames/TS_54_024_36_0_PS.ctf:mrc 15293.209004 15303.857247   117.241211   -142.32015     0.119576     9.555968     0.611340     -0.08144    35.984286    85.209014    -12.54604    -39.19287     0.668281 
frames/TS_54_025_39.0.mrc           10    38.999200    85.000000    75.000000     -1.50000 MotionCorr/job002/frames/TS_54_025_39_0_PS.mrc MotionCorr/job002/frames/TS_54_025_39_0_EVN.mrc MotionCorr/job002/frames/TS_54_025_39_0_ODD.mrc MotionCorr/job002/frames/TS_54_025_39_0.mrc MotionCorr/job002/frames/TS_54_025_39_0.star     7.490082     0.000000     7.490082 CtfFind/job003/frames/TS_54_025_39_0_PS.ctf:mrc 15510.085204 15669.463103     0.000000    92.636036     0.117302    10.094332     0.737300     -0.07173    39.001031    85.217376     -1.94548    -20.50137     0.675938 
frames/TS_54_028_42.0.mrc           10    41.996900    85.000000    84.000000     -1.50000 MotionCorr/job002/frames/TS_54_028_42_0_PS.mrc MotionCorr/job002/frames/TS_54_028_42_0_EVN.mrc MotionCorr/job002/frames/TS_54_028_42_0_ODD.mrc MotionCorr/job002/frames/TS_54_028_42_0.mrc MotionCorr/job002/frames/TS_54_028_42_0.star     8.404922     0.000000     8.404922 CtfFind/job003/frames/TS_54_028_42_0_PS.ctf:mrc 15531.044587 16188.821906   341.065430   118.440376     0.121007    10.696979     0.713250     -0.04770    41.962995    85.239918    -18.02143    -32.88435     0.450245 
frames/TS_54_029_45.0.mrc           10    44.997500    85.000000    87.000000     -1.50000 MotionCorr/job002/frames/TS_54_029_45_0_PS.mrc MotionCorr/job002/frames/TS_54_029_45_0_EVN.mrc MotionCorr/job002/frames/TS_54_029_45_0_ODD.mrc MotionCorr/job002/frames/TS_54_029_45_0.mrc MotionCorr/job002/frames/TS_54_029_45_0.star     8.971955     0.000000     8.971955 CtfFind/job003/frames/TS_54_029_45_0_PS.ctf:mrc 15265.930013 15353.388092    99.777344   -179.98701     0.145571    11.376152     0.548480     -0.05400    44.957351    85.246212     0.442861    -21.94098     0.415926 
frames/TS_54_032_48.0.mrc           10    47.998100    85.000000    96.000000     -1.50000 MotionCorr/job002/frames/TS_54_032_48_0_PS.mrc MotionCorr/job002/frames/TS_54_032_48_0_EVN.mrc MotionCorr/job002/frames/TS_54_032_48_0_ODD.mrc MotionCorr/job002/frames/TS_54_032_48_0.mrc MotionCorr/job002/frames/TS_54_032_48_0.star     7.462951     0.000000     7.462951 CtfFind/job003/frames/TS_54_032_48_0_PS.ctf:mrc 15064.980275 15192.448570    99.599609   121.736559     0.110570    11.198400     0.608910     -0.03280    47.954796    85.269486    -22.38254    -42.70663     0.353666 
frames/TS_54_033_51.0.mrc           10    50.996300    85.000000    99.000000     -1.50000 MotionCorr/job002/frames/TS_54_033_51_0_PS.mrc MotionCorr/job002/frames/TS_54_033_51_0_EVN.mrc MotionCorr/job002/frames/TS_54_033_51_0_ODD.mrc MotionCorr/job002/frames/TS_54_033_51_0.mrc MotionCorr/job002/frames/TS_54_033_51_0.star     9.473860     0.000000     9.473860 CtfFind/job003/frames/TS_54_033_51_0_PS.ctf:mrc 15548.511458 15682.940612    91.287109   150.472473     0.127937    11.198400     0.528160     -0.04357    50.980776    85.269582     -5.52653    -39.51676     0.306585 
frames/TS_54_036_54.0.mrc           10    53.997400    85.000000   108.000000     -1.50000 MotionCorr/job002/frames/TS_54_036_54_0_PS.mrc MotionCorr/job002/frames/TS_54_036_54_0_EVN.mrc MotionCorr/job002/frames/TS_54_036_54_0_ODD.mrc MotionCorr/job002/frames/TS_54_036_54_0.mrc MotionCorr/job002/frames/TS_54_036_54_0.star    10.354688     0.000000    10.354688 CtfFind/job003/frames/TS_54_036_54_0_PS.ctf:mrc 15292.911155 15469.341648   102.067383   109.000594     0.132164    25.000000     1.123490     -0.02162    53.944523    85.291836    -29.78172    -58.28153     0.210982 
frames/TS_54_037_57.0.mrc           10    56.996500    85.000000   111.000000     -1.50000 MotionCorr/job002/frames/TS_54_037_57_0_PS.mrc MotionCorr/job002/frames/TS_54_037_57_0_EVN.mrc MotionCorr/job002/frames/TS_54_037_57_0_ODD.mrc MotionCorr/job002/frames/TS_54_037_57_0.mrc MotionCorr/job002/frames/TS_54_037_57_0.star    11.211188     0.000000    11.211188 CtfFind/job003/frames/TS_54_037_57_0_PS.ctf:mrc 15178.402782 15215.164649    44.361328    62.460575     0.127873    10.539670     0.606530     -0.05392    56.955950    85.273518    -16.05873    -42.70343     0.379011 
frames/TS_54_040_60.0.mrc           10    59.997200    85.000000   120.000000     -1.50000 MotionCorr/job002/frames/TS_54_040_60_0_PS.mrc MotionCorr/job002/frames/TS_54_040_60_0_EVN.mrc MotionCorr/job002/frames/TS_54_040_60_0_ODD.mrc MotionCorr/job002/frames/TS_54_040_60_0.mrc MotionCorr/job002/frames/TS_54_040_60_0.star     9.814438     0.000000     9.814438 CtfFind/job003/frames/TS_54_040_60_0_PS.ctf:mrc 15946.661868 16070.357270    83.993164   173.833922     0.177517    25.000000     0.672730     -0.03847    59.912045    85.315061    -29.27688    -60.15020     0.129316 
 
