# Created by the starfile Python package (version 0.4.12) at 13:51:28 on 15/03/2024

data_TS_03

loop_
_rlnMicrographMovieName #1
_rlnTomoTiltMovieFrameCount #2
_rlnTomoNominalStageTiltAngle #3
_rlnTomoNominalTiltAxisAngle #4
_rlnMicrographPreExposure #5
_rlnTomoNominalDefocus #6
_rlnCtfPowerSpectrum #7
_rlnMicrographNameEven #8
_rlnMicrographNameOdd #9
_rlnMicrographName #10
_rlnMicrographMetadata #11
_rlnAccumMotionTotal #12
_rlnAccumMotionEarly #13
_rlnAccumMotionLate #14
_rlnCtfImage #15
_rlnDefocusU #16
_rlnDefocusV #17
_rlnCtfAstigmatism #18
_rlnDefocusAngle #19
_rlnCtfFigureOfMerit #20
_rlnCtfMaxResolution #21
_rlnCtfIceRingDensity #22
_rlnTomoXTilt #23
_rlnTomoYTilt #24
_rlnTomoZRot #25
_rlnTomoXShiftAngst #26
_rlnTomoYShiftAngst #27
frames/TS_03_038_-57.0.mrc	8	-56.999000	85.000000	114.000000	-1.500000	MotionCorr/job002/frames/TS_03_038_-57_0_PS.mrc	MotionCorr/job002/frames/TS_03_038_-57_0_EVN.mrc	MotionCorr/job002/frames/TS_03_038_-57_0_ODD.mrc	MotionCorr/job002/frames/TS_03_038_-57_0.mrc	MotionCorr/job002/frames/TS_03_038_-57_0.star	96.111993	0.000000	96.111993	CtfFind/job003/frames/TS_03_038_-57_0_PS.ctf:mrc	15806.685547	15714.913086	91.772461	47.286701	0.015304	25.000000	0.530370	0.000000	-57.000000	85.105602	-238.328054	-131.419361
frames/TS_03_035_-54.0.mrc	8	-53.998900	85.000000	105.000000	-1.500000	MotionCorr/job002/frames/TS_03_035_-54_0_PS.mrc	MotionCorr/job002/frames/TS_03_035_-54_0_EVN.mrc	MotionCorr/job002/frames/TS_03_035_-54_0_ODD.mrc	MotionCorr/job002/frames/TS_03_035_-54_0.mrc	MotionCorr/job002/frames/TS_03_035_-54_0.star	39.495946	0.000000	39.495946	CtfFind/job003/frames/TS_03_035_-54_0_PS.ctf:mrc	15053.888672	14996.804688	57.083984	29.159719	0.047231	25.000000	0.541930	0.000000	-54.000000	85.123118	-62.699935	-109.922770
frames/TS_03_034_-51.0.mrc	8	-50.999300	85.000000	102.000000	-1.500000	MotionCorr/job002/frames/TS_03_034_-51_0_PS.mrc	MotionCorr/job002/frames/TS_03_034_-51_0_EVN.mrc	MotionCorr/job002/frames/TS_03_034_-51_0_ODD.mrc	MotionCorr/job002/frames/TS_03_034_-51_0.mrc	MotionCorr/job002/frames/TS_03_034_-51_0.star	8.906427	0.000000	8.906427	CtfFind/job003/frames/TS_03_034_-51_0_PS.ctf:mrc	13314.143555	12774.704102	539.439453	43.624508	0.074001	25.000000	0.540480	0.000000	-51.000000	85.138334	15.452408	-51.657368
frames/TS_03_031_-48.0.mrc	8	-47.999100	85.000000	93.000000	-1.500000	MotionCorr/job002/frames/TS_03_031_-48_0_PS.mrc	MotionCorr/job002/frames/TS_03_031_-48_0_EVN.mrc	MotionCorr/job002/frames/TS_03_031_-48_0_ODD.mrc	MotionCorr/job002/frames/TS_03_031_-48_0.mrc	MotionCorr/job002/frames/TS_03_031_-48_0.star	5.301389	0.000000	5.301389	CtfFind/job003/frames/TS_03_031_-48_0_PS.ctf:mrc	13375.472656	12950.685547	424.787109	43.455395	0.070006	8.634910	0.616740	0.000000	-48.000000	85.151755	17.512299	-56.310631
frames/TS_03_030_-45.0.mrc	8	-44.999000	85.000000	90.000000	-1.500000	MotionCorr/job002/frames/TS_03_030_-45_0_PS.mrc	MotionCorr/job002/frames/TS_03_030_-45_0_EVN.mrc	MotionCorr/job002/frames/TS_03_030_-45_0_ODD.mrc	MotionCorr/job002/frames/TS_03_030_-45_0.mrc	MotionCorr/job002/frames/TS_03_030_-45_0.star	4.361125	0.000000	4.361125	CtfFind/job003/frames/TS_03_030_-45_0_PS.ctf:mrc	14595.449219	14073.648438	521.800781	42.042316	0.079347	10.094332	0.768970	0.000000	-45.000000	85.163738	26.348054	-22.055779
frames/TS_03_027_-42.0.mrc	8	-41.999400	85.000000	81.000000	-1.500000	MotionCorr/job002/frames/TS_03_027_-42_0_PS.mrc	MotionCorr/job002/frames/TS_03_027_-42_0_EVN.mrc	MotionCorr/job002/frames/TS_03_027_-42_0_ODD.mrc	MotionCorr/job002/frames/TS_03_027_-42_0.mrc	MotionCorr/job002/frames/TS_03_027_-42_0.star	3.259830	0.000000	3.259830	CtfFind/job003/frames/TS_03_027_-42_0_PS.ctf:mrc	14840.438477	13949.849609	890.588867	52.650730	0.072639	9.685102	0.694580	0.000000	-42.000000	85.174565	20.019500	-31.507855
frames/TS_03_026_-39.0.mrc	8	-38.998700	85.000000	78.000000	-1.500000	MotionCorr/job002/frames/TS_03_026_-39_0_PS.mrc	MotionCorr/job002/frames/TS_03_026_-39_0_EVN.mrc	MotionCorr/job002/frames/TS_03_026_-39_0_ODD.mrc	MotionCorr/job002/frames/TS_03_026_-39_0.mrc	MotionCorr/job002/frames/TS_03_026_-39_0.star	3.213115	0.000000	3.213115	CtfFind/job003/frames/TS_03_026_-39_0_PS.ctf:mrc	14588.820312	13985.111328	603.708984	56.072868	0.087992	10.696979	0.975220	0.000000	-39.000000	85.184432	25.408675	-4.361065
frames/TS_03_023_-36.0.mrc	8	-35.998600	85.000000	69.000000	-1.500000	MotionCorr/job002/frames/TS_03_023_-36_0_PS.mrc	MotionCorr/job002/frames/TS_03_023_-36_0_EVN.mrc	MotionCorr/job002/frames/TS_03_023_-36_0_ODD.mrc	MotionCorr/job002/frames/TS_03_023_-36_0.mrc	MotionCorr/job002/frames/TS_03_023_-36_0.star	3.701328	0.000000	3.701328	CtfFind/job003/frames/TS_03_023_-36_0_PS.ctf:mrc	13863.014648	13587.685547	275.329102	43.210846	0.076480	9.954133	0.493570	0.000000	-36.000000	85.193523	17.971672	-13.653914
frames/TS_03_022_-33.0.mrc	8	-32.999000	85.000000	66.000000	-1.500000	MotionCorr/job002/frames/TS_03_022_-33_0_PS.mrc	MotionCorr/job002/frames/TS_03_022_-33_0_EVN.mrc	MotionCorr/job002/frames/TS_03_022_-33_0_ODD.mrc	MotionCorr/job002/frames/TS_03_022_-33_0.mrc	MotionCorr/job002/frames/TS_03_022_-33_0.star	3.010083	0.000000	3.010083	CtfFind/job003/frames/TS_03_022_-33_0_PS.ctf:mrc	14492.913086	13799.497070	693.416016	63.232269	0.085505	9.188430	0.757130	0.000000	-33.000000	85.201975	20.185445	15.539414
frames/TS_03_019_-30.0.mrc	8	-29.999300	85.000000	57.000000	-1.500000	MotionCorr/job002/frames/TS_03_019_-30_0_PS.mrc	MotionCorr/job002/frames/TS_03_019_-30_0_EVN.mrc	MotionCorr/job002/frames/TS_03_019_-30_0_ODD.mrc	MotionCorr/job002/frames/TS_03_019_-30_0.mrc	MotionCorr/job002/frames/TS_03_019_-30_0.star	2.650273	0.000000	2.650273	CtfFind/job003/frames/TS_03_019_-30_0_PS.ctf:mrc	14256.079102	13741.033203	515.045898	53.336273	0.079407	8.848118	0.717920	0.000000	-30.000000	85.209875	11.811676	4.766448
frames/TS_03_018_-27.0.mrc	8	-26.998700	85.000000	54.000000	-1.500000	MotionCorr/job002/frames/TS_03_018_-27_0_PS.mrc	MotionCorr/job002/frames/TS_03_018_-27_0_EVN.mrc	MotionCorr/job002/frames/TS_03_018_-27_0_ODD.mrc	MotionCorr/job002/frames/TS_03_018_-27_0.mrc	MotionCorr/job002/frames/TS_03_018_-27_0.star	2.942248	0.000000	2.942248	CtfFind/job003/frames/TS_03_018_-27_0_PS.ctf:mrc	14787.964844	14013.215820	774.749023	75.497810	0.072302	8.532114	0.897310	0.000000	-27.000000	85.217332	18.215400	35.442104
frames/TS_03_015_-24.0.mrc	8	-23.998600	85.000000	45.000000	-1.500000	MotionCorr/job002/frames/TS_03_015_-24_0_PS.mrc	MotionCorr/job002/frames/TS_03_015_-24_0_EVN.mrc	MotionCorr/job002/frames/TS_03_015_-24_0_ODD.mrc	MotionCorr/job002/frames/TS_03_015_-24_0.mrc	MotionCorr/job002/frames/TS_03_015_-24_0.star	2.726784	0.000000	2.726784	CtfFind/job003/frames/TS_03_015_-24_0_PS.ctf:mrc	14685.175781	14130.378906	554.796875	42.883930	0.081781	7.026447	0.592440	0.000000	-24.000000	85.224410	9.259401	22.637052
frames/TS_03_014_-21.0.mrc	8	-20.998900	85.000000	42.000000	-1.500000	MotionCorr/job002/frames/TS_03_014_-21_0_PS.mrc	MotionCorr/job002/frames/TS_03_014_-21_0_EVN.mrc	MotionCorr/job002/frames/TS_03_014_-21_0_ODD.mrc	MotionCorr/job002/frames/TS_03_014_-21_0.mrc	MotionCorr/job002/frames/TS_03_014_-21_0.star	2.414818	0.000000	2.414818	CtfFind/job003/frames/TS_03_014_-21_0_PS.ctf:mrc	14887.589844	14320.711914	566.877930	57.847733	0.080299	6.286821	0.662610	0.000000	-21.000000	85.231183	18.222190	52.810984
frames/TS_03_011_-18.0.mrc	8	-17.998800	85.000000	33.000000	-1.500000	MotionCorr/job002/frames/TS_03_011_-18_0_PS.mrc	MotionCorr/job002/frames/TS_03_011_-18_0_EVN.mrc	MotionCorr/job002/frames/TS_03_011_-18_0_ODD.mrc	MotionCorr/job002/frames/TS_03_011_-18_0.mrc	MotionCorr/job002/frames/TS_03_011_-18_0.star	2.602850	0.000000	2.602850	CtfFind/job003/frames/TS_03_011_-18_0_PS.ctf:mrc	14772.251953	14045.463867	726.788086	45.254883	0.079273	7.026447	0.824200	0.000000	-18.000000	85.237703	14.385155	36.552332
frames/TS_03_010_-15.0.mrc	8	-14.999200	85.000000	30.000000	-1.500000	MotionCorr/job002/frames/TS_03_010_-15_0_PS.mrc	MotionCorr/job002/frames/TS_03_010_-15_0_EVN.mrc	MotionCorr/job002/frames/TS_03_010_-15_0_ODD.mrc	MotionCorr/job002/frames/TS_03_010_-15_0.mrc	MotionCorr/job002/frames/TS_03_010_-15_0.star	3.136864	0.000000	3.136864	CtfFind/job003/frames/TS_03_010_-15_0_PS.ctf:mrc	14811.187500	14416.302734	394.884766	67.411964	0.089302	6.022669	0.844510	0.000000	-15.000000	85.244010	18.731247	61.941437
frames/TS_03_007_-12.0.mrc	8	-11.998000	85.000000	21.000000	-1.500000	MotionCorr/job002/frames/TS_03_007_-12_0_PS.mrc	MotionCorr/job002/frames/TS_03_007_-12_0_EVN.mrc	MotionCorr/job002/frames/TS_03_007_-12_0_ODD.mrc	MotionCorr/job002/frames/TS_03_007_-12_0.mrc	MotionCorr/job002/frames/TS_03_007_-12_0.star	2.313651	0.000000	2.313651	CtfFind/job003/frames/TS_03_007_-12_0_PS.ctf:mrc	14724.524414	14364.711914	359.812500	69.016373	0.078866	5.733581	0.805790	0.000000	-12.000000	85.250150	14.968572	52.508818
frames/TS_03_006_-9.0.mrc	8	-8.998900	85.000000	18.000000	-1.500000	MotionCorr/job002/frames/TS_03_006_-9_0_PS.mrc	MotionCorr/job002/frames/TS_03_006_-9_0_EVN.mrc	MotionCorr/job002/frames/TS_03_006_-9_0_ODD.mrc	MotionCorr/job002/frames/TS_03_006_-9_0.mrc	MotionCorr/job002/frames/TS_03_006_-9_0.star	2.740379	0.000000	2.740379	CtfFind/job003/frames/TS_03_006_-9_0_PS.ctf:mrc	14710.955078	14246.166016	464.789062	56.711086	0.076235	5.429527	0.739670	0.000000	-9.000000	85.256164	18.180214	49.897176
frames/TS_03_003_-6.0.mrc	8	-5.998270	85.000000	9.000000	-1.500000	MotionCorr/job002/frames/TS_03_003_-6_0_PS.mrc	MotionCorr/job002/frames/TS_03_003_-6_0_EVN.mrc	MotionCorr/job002/frames/TS_03_003_-6_0_ODD.mrc	MotionCorr/job002/frames/TS_03_003_-6_0.mrc	MotionCorr/job002/frames/TS_03_003_-6_0.star	2.179822	0.000000	2.179822	CtfFind/job003/frames/TS_03_003_-6_0_PS.ctf:mrc	14771.098633	14347.593750	423.504883	60.647057	0.061769	5.193461	0.531500	0.000000	-6.000000	85.262091	14.345009	53.357880
frames/TS_03_002_-3.0.mrc	8	-2.998630	85.000000	6.000000	-1.500000	MotionCorr/job002/frames/TS_03_002_-3_0_PS.mrc	MotionCorr/job002/frames/TS_03_002_-3_0_EVN.mrc	MotionCorr/job002/frames/TS_03_002_-3_0_ODD.mrc	MotionCorr/job002/frames/TS_03_002_-3_0.mrc	MotionCorr/job002/frames/TS_03_002_-3_0.star	1.817747	0.000000	1.817747	CtfFind/job003/frames/TS_03_002_-3_0_PS.ctf:mrc	14726.876953	14172.788086	554.088867	62.088310	0.066306	4.977066	0.697890	0.000000	-3.000000	85.267967	13.500011	36.966192
frames/TS_03_000_0.0.mrc	8	0.001500	85.000000	0.000000	-1.500000	MotionCorr/job002/frames/TS_03_000_0_0_PS.mrc	MotionCorr/job002/frames/TS_03_000_0_0_EVN.mrc	MotionCorr/job002/frames/TS_03_000_0_0_ODD.mrc	MotionCorr/job002/frames/TS_03_000_0_0.mrc	MotionCorr/job002/frames/TS_03_000_0_0.star	4.072953	2.389154	1.683799	CtfFind/job003/frames/TS_03_000_0_0_PS.ctf:mrc	15032.874023	14377.012695	655.861328	70.033463	0.061578	4.875494	0.773580	0.000000	0.000000	85.273814	15.851503	50.644006
frames/TS_03_001_3.0.mrc	8	3.001130	85.000000	3.000000	-1.500000	MotionCorr/job002/frames/TS_03_001_3_0_PS.mrc	MotionCorr/job002/frames/TS_03_001_3_0_EVN.mrc	MotionCorr/job002/frames/TS_03_001_3_0_ODD.mrc	MotionCorr/job002/frames/TS_03_001_3_0.mrc	MotionCorr/job002/frames/TS_03_001_3_0.star	2.934302	0.000000	2.934302	CtfFind/job003/frames/TS_03_001_3_0_PS.ctf:mrc	14793.364258	14378.416992	414.947266	51.081917	0.074139	5.733581	0.409340	0.000000	3.000000	85.279672	16.985150	68.440351
frames/TS_03_004_6.0.mrc	8	6.000760	85.000000	12.000000	-1.500000	MotionCorr/job002/frames/TS_03_004_6_0_PS.mrc	MotionCorr/job002/frames/TS_03_004_6_0_EVN.mrc	MotionCorr/job002/frames/TS_03_004_6_0_ODD.mrc	MotionCorr/job002/frames/TS_03_004_6_0.mrc	MotionCorr/job002/frames/TS_03_004_6_0.star	2.497861	0.000000	2.497861	CtfFind/job003/frames/TS_03_004_6_0_PS.ctf:mrc	14565.737305	14272.127930	293.609375	23.824425	0.075577	5.429527	0.752080	0.000000	6.000000	85.285565	12.500979	45.427171
frames/TS_03_005_9.0.mrc	8	9.001400	85.000000	15.000000	-1.500000	MotionCorr/job002/frames/TS_03_005_9_0_PS.mrc	MotionCorr/job002/frames/TS_03_005_9_0_EVN.mrc	MotionCorr/job002/frames/TS_03_005_9_0_ODD.mrc	MotionCorr/job002/frames/TS_03_005_9_0.mrc	MotionCorr/job002/frames/TS_03_005_9_0.star	1.609453	0.000000	1.609453	CtfFind/job003/frames/TS_03_005_9_0_PS.ctf:mrc	14626.625977	14244.730469	381.895508	69.809601	0.066536	6.456735	0.729540	0.000000	9.000000	85.291544	7.361050	56.874921
frames/TS_03_008_12.0.mrc	8	12.000500	85.000000	24.000000	-1.500000	MotionCorr/job002/frames/TS_03_008_12_0_PS.mrc	MotionCorr/job002/frames/TS_03_008_12_0_EVN.mrc	MotionCorr/job002/frames/TS_03_008_12_0_ODD.mrc	MotionCorr/job002/frames/TS_03_008_12_0.mrc	MotionCorr/job002/frames/TS_03_008_12_0.star	3.120055	0.000000	3.120055	CtfFind/job003/frames/TS_03_008_12_0_PS.ctf:mrc	14821.362305	14323.970703	497.391602	40.214317	0.086996	6.232153	0.920330	0.000000	12.000000	85.297620	7.132154	32.643371
frames/TS_03_009_15.0.mrc	8	15.000700	85.000000	27.000000	-1.500000	MotionCorr/job002/frames/TS_03_009_15_0_PS.mrc	MotionCorr/job002/frames/TS_03_009_15_0_EVN.mrc	MotionCorr/job002/frames/TS_03_009_15_0_ODD.mrc	MotionCorr/job002/frames/TS_03_009_15_0.mrc	MotionCorr/job002/frames/TS_03_009_15_0.star	2.301584	0.000000	2.301584	CtfFind/job003/frames/TS_03_009_15_0_PS.ctf:mrc	14698.920898	14502.366211	196.554688	81.890686	0.071106	6.575207	0.769530	0.000000	15.000000	85.303858	11.005074	42.732686
frames/TS_03_012_18.0.mrc	8	18.000300	85.000000	36.000000	-1.500000	MotionCorr/job002/frames/TS_03_012_18_0_PS.mrc	MotionCorr/job002/frames/TS_03_012_18_0_EVN.mrc	MotionCorr/job002/frames/TS_03_012_18_0_ODD.mrc	MotionCorr/job002/frames/TS_03_012_18_0.mrc	MotionCorr/job002/frames/TS_03_012_18_0.star	2.646684	0.000000	2.646684	CtfFind/job003/frames/TS_03_012_18_0_PS.ctf:mrc	14821.972656	14546.337891	275.634766	2.265956	0.059765	6.761298	0.713570	0.000000	18.000000	85.310274	4.858066	23.769070
frames/TS_03_013_21.0.mrc	8	21.000900	85.000000	39.000000	-1.500000	MotionCorr/job002/frames/TS_03_013_21_0_PS.mrc	MotionCorr/job002/frames/TS_03_013_21_0_EVN.mrc	MotionCorr/job002/frames/TS_03_013_21_0_ODD.mrc	MotionCorr/job002/frames/TS_03_013_21_0.mrc	MotionCorr/job002/frames/TS_03_013_21_0.star	2.705364	0.000000	2.705364	CtfFind/job003/frames/TS_03_013_21_0_PS.ctf:mrc	14449.310547	14269.752930	179.557617	33.712070	0.066225	7.166976	0.886440	0.000000	21.000000	85.316919	6.731935	31.350224
frames/TS_03_016_24.0.mrc	8	24.000600	85.000000	48.000000	-1.500000	MotionCorr/job002/frames/TS_03_016_24_0_PS.mrc	MotionCorr/job002/frames/TS_03_016_24_0_EVN.mrc	MotionCorr/job002/frames/TS_03_016_24_0_ODD.mrc	MotionCorr/job002/frames/TS_03_016_24_0.mrc	MotionCorr/job002/frames/TS_03_016_24_0.star	2.614310	0.000000	2.614310	CtfFind/job003/frames/TS_03_016_24_0_PS.ctf:mrc	14607.389648	14251.954102	355.435547	-74.680670	0.070183	7.963306	0.569710	0.000000	24.000000	85.323852	5.616639	28.360448
frames/TS_03_017_27.0.mrc	8	27.000700	85.000000	51.000000	-1.500000	MotionCorr/job002/frames/TS_03_017_27_0_PS.mrc	MotionCorr/job002/frames/TS_03_017_27_0_EVN.mrc	MotionCorr/job002/frames/TS_03_017_27_0_ODD.mrc	MotionCorr/job002/frames/TS_03_017_27_0.mrc	MotionCorr/job002/frames/TS_03_017_27_0.star	3.655325	0.000000	3.655325	CtfFind/job003/frames/TS_03_017_27_0_PS.ctf:mrc	14770.348633	14286.742188	483.606445	13.250637	0.065192	8.740214	1.192420	0.000000	27.000000	85.331136	10.130180	46.554238
frames/TS_03_020_30.0.mrc	8	30.000800	85.000000	60.000000	-1.500000	MotionCorr/job002/frames/TS_03_020_30_0_PS.mrc	MotionCorr/job002/frames/TS_03_020_30_0_EVN.mrc	MotionCorr/job002/frames/TS_03_020_30_0_ODD.mrc	MotionCorr/job002/frames/TS_03_020_30_0.mrc	MotionCorr/job002/frames/TS_03_020_30_0.star	2.856914	0.000000	2.856914	CtfFind/job003/frames/TS_03_020_30_0_PS.ctf:mrc	14703.971680	14262.827148	441.144531	18.411280	0.070988	8.532114	0.472590	0.000000	30.000000	85.338828	-3.096754	41.941996
frames/TS_03_021_33.0.mrc	8	33.001000	85.000000	63.000000	-1.500000	MotionCorr/job002/frames/TS_03_021_33_0_PS.mrc	MotionCorr/job002/frames/TS_03_021_33_0_EVN.mrc	MotionCorr/job002/frames/TS_03_021_33_0_ODD.mrc	MotionCorr/job002/frames/TS_03_021_33_0.mrc	MotionCorr/job002/frames/TS_03_021_33_0.star	3.391973	0.000000	3.391973	CtfFind/job003/frames/TS_03_021_33_0_PS.ctf:mrc	14622.342773	14622.341797	0.000977	11.683120	0.070425	9.954133	0.465080	0.000000	33.000000	85.347025	10.141271	74.760436
frames/TS_03_024_36.0.mrc	8	36.000600	85.000000	72.000000	-1.500000	MotionCorr/job002/frames/TS_03_024_36_0_PS.mrc	MotionCorr/job002/frames/TS_03_024_36_0_EVN.mrc	MotionCorr/job002/frames/TS_03_024_36_0_ODD.mrc	MotionCorr/job002/frames/TS_03_024_36_0.mrc	MotionCorr/job002/frames/TS_03_024_36_0.star	3.601807	0.000000	3.601807	CtfFind/job003/frames/TS_03_024_36_0_PS.ctf:mrc	14666.465820	14448.216797	218.249023	-75.140010	0.090294	8.848118	1.260370	0.000000	36.000000	85.355809	4.067894	72.201505
frames/TS_03_025_39.0.mrc	8	39.000700	85.000000	75.000000	-1.500000	MotionCorr/job002/frames/TS_03_025_39_0_PS.mrc	MotionCorr/job002/frames/TS_03_025_39_0_EVN.mrc	MotionCorr/job002/frames/TS_03_025_39_0_ODD.mrc	MotionCorr/job002/frames/TS_03_025_39_0.mrc	MotionCorr/job002/frames/TS_03_025_39_0.star	2.430764	0.000000	2.430764	CtfFind/job003/frames/TS_03_025_39_0_PS.ctf:mrc	14614.287109	14482.674805	131.612305	9.015071	0.093119	11.026116	0.573320	0.000000	39.000000	85.365317	15.120953	103.052964
frames/TS_03_028_42.0.mrc	8	42.000900	85.000000	84.000000	-1.500000	MotionCorr/job002/frames/TS_03_028_42_0_PS.mrc	MotionCorr/job002/frames/TS_03_028_42_0_EVN.mrc	MotionCorr/job002/frames/TS_03_028_42_0_ODD.mrc	MotionCorr/job002/frames/TS_03_028_42_0.mrc	MotionCorr/job002/frames/TS_03_028_42_0.star	4.460118	0.000000	4.460118	CtfFind/job003/frames/TS_03_028_42_0_PS.ctf:mrc	14232.533203	14021.932617	210.600586	-51.505910	0.087854	10.859054	0.604700	0.000000	42.000000	85.375692	-2.119655	95.596278
frames/TS_03_029_45.0.mrc	8	45.000500	85.000000	87.000000	-1.500000	MotionCorr/job002/frames/TS_03_029_45_0_PS.mrc	MotionCorr/job002/frames/TS_03_029_45_0_EVN.mrc	MotionCorr/job002/frames/TS_03_029_45_0_ODD.mrc	MotionCorr/job002/frames/TS_03_029_45_0.mrc	MotionCorr/job002/frames/TS_03_029_45_0.star	4.061861	0.000000	4.061861	CtfFind/job003/frames/TS_03_029_45_0_PS.ctf:mrc	15110.403320	14951.343750	159.059570	29.066839	0.144842	11.559638	0.594350	0.000000	45.000000	85.387126	16.758417	124.124993
frames/TS_03_032_48.0.mrc	8	47.999600	85.000000	96.000000	-1.500000	MotionCorr/job002/frames/TS_03_032_48_0_PS.mrc	MotionCorr/job002/frames/TS_03_032_48_0_EVN.mrc	MotionCorr/job002/frames/TS_03_032_48_0_ODD.mrc	MotionCorr/job002/frames/TS_03_032_48_0.mrc	MotionCorr/job002/frames/TS_03_032_48_0.star	3.930790	0.000000	3.930790	CtfFind/job003/frames/TS_03_032_48_0_PS.ctf:mrc	15031.770508	14872.466797	159.303711	-45.239340	0.087733	10.094332	0.806360	0.000000	48.000000	85.399863	-3.430960	115.618953
frames/TS_03_033_51.0.mrc	8	50.999800	85.000000	99.000000	-1.500000	MotionCorr/job002/frames/TS_03_033_51_0_PS.mrc	MotionCorr/job002/frames/TS_03_033_51_0_EVN.mrc	MotionCorr/job002/frames/TS_03_033_51_0_ODD.mrc	MotionCorr/job002/frames/TS_03_033_51_0.mrc	MotionCorr/job002/frames/TS_03_033_51_0.star	3.402876	0.000000	3.402876	CtfFind/job003/frames/TS_03_033_51_0_PS.ctf:mrc	14503.077148	14454.727539	48.349609	59.234779	0.104601	25.000000	1.082720	0.000000	51.000000	85.414228	11.684522	143.803277
frames/TS_03_036_54.0.mrc	8	53.996900	85.000000	108.000000	-1.500000	MotionCorr/job002/frames/TS_03_036_54_0_PS.mrc	MotionCorr/job002/frames/TS_03_036_54_0_EVN.mrc	MotionCorr/job002/frames/TS_03_036_54_0_ODD.mrc	MotionCorr/job002/frames/TS_03_036_54_0.mrc	MotionCorr/job002/frames/TS_03_036_54_0.star	3.360161	0.000000	3.360161	CtfFind/job003/frames/TS_03_036_54_0_PS.ctf:mrc	14774.868164	14670.440430	104.427734	-44.674060	0.133267	25.000000	0.507790	0.000000	54.000000	85.430638	-8.464787	138.069275
frames/TS_03_037_57.0.mrc	8	56.996000	85.000000	111.000000	-1.500000	MotionCorr/job002/frames/TS_03_037_57_0_PS.mrc	MotionCorr/job002/frames/TS_03_037_57_0_EVN.mrc	MotionCorr/job002/frames/TS_03_037_57_0_ODD.mrc	MotionCorr/job002/frames/TS_03_037_57_0.mrc	MotionCorr/job002/frames/TS_03_037_57_0.star	3.062455	0.000000	3.062455	CtfFind/job003/frames/TS_03_037_57_0_PS.ctf:mrc	14412.353516	14203.729492	208.624023	40.819916	0.111687	8.532114	0.553800	0.000000	57.000000	85.449692	11.615936	174.577839
frames/TS_03_040_60.0.mrc	8	59.998100	85.000000	120.000000	-1.500000	MotionCorr/job002/frames/TS_03_040_60_0_PS.mrc	MotionCorr/job002/frames/TS_03_040_60_0_EVN.mrc	MotionCorr/job002/frames/TS_03_040_60_0_ODD.mrc	MotionCorr/job002/frames/TS_03_040_60_0.mrc	MotionCorr/job002/frames/TS_03_040_60_0.star	4.056148	0.000000	4.056148	CtfFind/job003/frames/TS_03_040_60_0_PS.ctf:mrc	14827.744141	14741.833008	85.911133	14.571064	0.145422	25.000000	0.496110	0.000000	60.000000	85.472211	-6.814450	159.552803


