# RELION postprocess; version 5.0-beta-2-commit-a0b145
# --mask mask_fsc.mrc --i Reconstruct/job058/half1.mrc --o PostProcess/job059/postprocess --angpix -1 --pipeline_control PostProcess/job059/ 

# version 50001

data_general

_rlnFinalResolution                               3.410526
_rlnBfactorUsedForSharpening                      0.000000
_rlnUnfilteredMapHalf1                        Reconstruct/job058/half1.mrc
_rlnUnfilteredMapHalf2                        Reconstruct/job058/half2.mrc
_rlnPostprocessedMap                          PostProcess/job059/postprocess.mrc
_rlnParticleBoxFractionSolventMask               10.682012
_rlnMaskName                                  mask_fsc.mrc
_rlnRandomiseFrom                                 7.005406
_rlnPostprocessedMapMasked                    PostProcess/job059/postprocess_masked.mrc
 

# version 50001

data_fsc

loop_ 
_rlnSpectralIndex #1 
_rlnResolution #2 
_rlnAngstromResolution #3 
_rlnFourierShellCorrelationCorrected #4 
_rlnFourierShellCorrelationParticleMaskFraction #5 
_rlnFourierShellCorrelationUnmaskedMaps #6 
_rlnFourierShellCorrelationMaskedMaps #7 
_rlnCorrectedFourierShellCorrelationPhaseRandomizedMaskedMaps #8 
           0     0.001001   999.000000     1.000000     1.000000     1.000000     1.000000     1.000000 
           1     0.003858   259.200012     0.999101     0.999959     0.999561     0.999101     0.998923 
           2     0.007716   129.600006     0.998207     0.999862     0.998531     0.998207     0.998044 
           3     0.011574    86.400004     0.999492     0.999989     0.999885     0.999492     0.999563 
           4     0.015432    64.800003     0.999844     0.999981     0.999792     0.999844     0.999849 
           5     0.019290    51.840002     0.999886     0.999969     0.999673     0.999886     0.999891 
           6     0.023148    43.200002     0.999819     0.999940     0.999357     0.999819     0.999822 
           7     0.027006    37.028573     0.999582     0.999873     0.998644     0.999582     0.999578 
           8     0.030864    32.400002     0.999077     0.999865     0.998561     0.999077     0.999117 
           9     0.034722    28.800001     0.998721     0.999774     0.997594     0.998721     0.998784 
          10     0.038580    25.920001     0.998104     0.999689     0.996691     0.998104     0.998093 
          11     0.042438    23.563637     0.997728     0.999539     0.995098     0.997728     0.997657 
          12     0.046296    21.600001     0.997350     0.999237     0.991911     0.997350     0.997227 
          13     0.050154    19.938462     0.996041     0.998595     0.985188     0.996041     0.995863 
          14     0.054012    18.514287     0.994470     0.999109     0.990563     0.994470     0.994404 
          15     0.057870    17.280001     0.994369     0.998635     0.985612     0.994369     0.994193 
          16     0.061728    16.200001     0.992760     0.998218     0.981284     0.992760     0.992876 
          17     0.065586    15.247060     0.992220     0.998604     0.985290     0.992220     0.992735 
          18     0.069444    14.400001     0.992717     0.998715     0.986442     0.992717     0.992979 
          19     0.073302    13.642106     0.991892     0.998361     0.982770     0.991892     0.991885 
          20     0.077160    12.960001     0.990868     0.997827     0.977269     0.990868     0.990741 
          21     0.081019    12.342858     0.990985     0.997507     0.973999     0.990985     0.990801 
          22     0.084877    11.781819     0.990660     0.997430     0.973210     0.990660     0.990557 
          23     0.088735    11.269566     0.991430     0.997575     0.974689     0.991430     0.991607 
          24     0.092593    10.800001     0.991872     0.998026     0.979306     0.991872     0.992096 
          25     0.096451    10.368000     0.989355     0.997846     0.977464     0.989355     0.989513 
          26     0.100309     9.969231     0.985526     0.995434     0.953289     0.985526     0.985480 
          27     0.104167     9.600000     0.983847     0.996447     0.963305     0.983847     0.983633 
          28     0.108025     9.257143     0.983409     0.996197     0.960820     0.983409     0.982925 
          29     0.111883     8.937931     0.980480     0.994046     0.939866     0.980480     0.979557 
          30     0.115741     8.640000     0.974038     0.991423     0.915406     0.974038     0.973486 
          31     0.119599     8.361291     0.969853     0.991080     0.912296     0.969853     0.971229 
          32     0.123457     8.100000     0.963650     0.990004     0.902646     0.963650     0.964854 
          33     0.127315     7.854546     0.953873     0.984059     0.852489     0.953873     0.952558 
          34     0.131173     7.623530     0.950128     0.985465     0.863887     0.950128     0.949564 
          35     0.135031     7.405715     0.948047     0.985563     0.864697     0.948047     0.948529 
          36     0.138889     7.200000     0.929953     0.978682     0.811244     0.929953     0.920533 
          37     0.142747     7.005406     0.906347     0.962849     0.708135     0.906347     0.831873 
          38     0.146605     6.821053     0.892442     0.958253     0.682420     0.892442     0.642105 
          39     0.150463     6.646154     0.801170     0.965147     0.721631     0.880925     0.401118 
          40     0.154321     6.480000     0.816561     0.959789     0.690833     0.874679     0.316823 
          41     0.158179     6.321952     0.821546     0.958945     0.686188     0.862060     0.227028 
          42     0.162037     6.171429     0.800767     0.950892     0.644470     0.841403     0.203963 
          43     0.165895     6.027907     0.806350     0.942137     0.603843     0.844386     0.196415 
          44     0.169753     5.890909     0.819337     0.946304     0.622613     0.841474     0.122529 
          45     0.173611     5.760000     0.804306     0.938854     0.589726     0.824764     0.104542 
          46     0.177469     5.634783     0.796615     0.937034     0.582141     0.812100     0.076135 
          47     0.181327     5.514894     0.804775     0.932389     0.563510     0.814275     0.048665 
          48     0.185185     5.400000     0.817836     0.938605     0.588679     0.827093     0.050819 
          49     0.189043     5.289796     0.838003     0.947211     0.626832     0.842816     0.029709 
          50     0.192901     5.184000     0.846166     0.947635     0.628822     0.850189     0.026147 
          51     0.196759     5.082353     0.847703     0.949376     0.637103     0.851056     0.022018 
          52     0.200617     4.984616     0.840473     0.941874     0.602692     0.842533     0.012909 
          53     0.204475     4.890566     0.819954     0.932360     0.563396     0.822034     0.011554 
          54     0.208333     4.800000     0.805080     0.934114     0.570310     0.808666     0.018401 
          55     0.212191     4.712727     0.797266     0.929520     0.552500     0.803376     0.030139 
          56     0.216049     4.628572     0.790398     0.921275     0.522794     0.795252     0.023162 
          57     0.219907     4.547369     0.786638     0.917719     0.510796     0.788246     0.007538 
          58     0.223765     4.468966     0.777627     0.906237     0.475014     0.782049     0.019889 
          59     0.227623     4.393221     0.746546     0.898332     0.452708     0.752362     0.022944 
          60     0.231481     4.320000     0.707252     0.876372     0.398901     0.711722     0.015269 
          61     0.235339     4.249181     0.693927     0.851639     0.349544     0.697274     0.010936 
          62     0.239198     4.180645     0.684214     0.843980     0.336168     0.682194     -0.00640 
          63     0.243056     4.114286     0.639165     0.837164     0.324912     0.636502     -0.00738 
          64     0.246914     4.050000     0.588661     0.793228     0.264236     0.588649 -2.90369e-05 
          65     0.250772     3.987692     0.540481     0.728384     0.200669     0.549391     0.019391 
          66     0.254630     3.927273     0.501181     0.729794     0.201816     0.514315     0.026330 
          67     0.258488     3.868657     0.487592     0.706737     0.184076     0.496040     0.016488 
          68     0.262346     3.811765     0.445062     0.655418     0.151148     0.458262     0.023786 
          69     0.266204     3.756522     0.413842     0.638728     0.142008     0.425116     0.019233 
          70     0.270062     3.702857     0.401288     0.622779     0.133866     0.405211     0.006552 
          71     0.273920     3.650704     0.374316     0.536687     0.097832     0.377475     0.005048 
          72     0.277778     3.600000     0.335802     0.479759     0.079470     0.339642     0.005781 
          73     0.281636     3.550685     0.277226     0.424804     0.064667     0.279009     0.002468 
          74     0.285494     3.502703     0.235498     0.404830     0.059864     0.232733     -0.00362 
          75     0.289352     3.456000     0.210751     0.401692     0.059135     0.210674 -9.85452e-05 
          76     0.293210     3.410526     0.176909     0.269200     0.033335     0.180281     0.004096 
          77     0.297068     3.366234     0.141348     0.174382     0.019389     0.151508     0.011832 
          78     0.300926     3.323077     0.125542     0.224889     0.026443     0.139376     0.015820 
          79     0.304784     3.281013     0.095109     0.200986     0.023007     0.107623     0.013829 
          80     0.308642     3.240000     0.081206     0.100027     0.010298     0.085722     0.004915 
          81     0.312500     3.200000     0.079776     0.188904     0.021338     0.079423 -3.84061e-04 
          82     0.316358     3.160976     0.093716     0.093306     0.009542     0.090758     -0.00326 
          83     0.320216     3.122892     0.085077     0.140821     0.015112     0.076022     -0.00990 
          84     0.324074     3.085714     0.046352     0.029346     0.002822     0.042301     -0.00425 
          85     0.327932     3.049412     0.027366     0.221568     0.025954     0.024311     -0.00314 
          86     0.331790     3.013954     0.024033     -0.02812     -0.00257     0.017856     -0.00633 
          87     0.335648     2.979310     0.026591     -0.01895     -0.00174     0.018240     -0.00858 
          88     0.339506     2.945455     0.014238     0.124316     0.013116     0.014147 -9.22848e-05 
          89     0.343364     2.912360     -0.00901     0.126342     0.013357 -5.63722e-04     0.008371 
          90     0.347222     2.880000     -0.01524     0.064500     0.006413     -0.00822     0.006916 
          91     0.351080     2.848352     -0.03173     0.015302     0.001453     -0.01954     0.011813 
          92     0.354938     2.817391     -0.04208     -0.00174 -1.63025e-04     -0.02634     0.015113 
          93     0.358796     2.787097     -0.02676     -0.04392     -0.00395     -0.01345     0.012963 
          94     0.362654     2.757447     -0.00645     -0.05821     -0.00518     -0.00174     0.004687 
          95     0.366512     2.728421     -0.01966     0.006372 5.999756e-04     -0.01007     0.009404 
          96     0.370370     2.700000     -0.01856     -0.00966 -8.96684e-04     -0.01107     0.007355 
 

# version 50001

data_guinier

loop_ 
_rlnResolutionSquared #1 
_rlnLogAmplitudesOriginal #2 
_rlnLogAmplitudesWeighted #3 
    0.000000    -26.53657    -26.53657 
1.488435e-05     -4.87105     -4.87127 
5.953741e-05     -5.97268     -5.97313 
1.339592e-04     -6.08832     -6.08844 
2.381496e-04     -6.04128     -6.04132 
3.721088e-04     -6.45262     -6.45265 
5.358367e-04     -6.88995     -6.89000 
7.293333e-04     -7.18439     -7.18449 
9.525986e-04     -7.29103     -7.29126 
    0.001206     -7.51047     -7.51079 
    0.001488     -7.54754     -7.54801 
    0.001801     -7.77200     -7.77257 
    0.002143     -8.07456     -8.07522 
    0.002515     -8.22651     -8.22750 
    0.002917     -8.00518     -8.00657 
    0.003349     -8.07139     -8.07281 
    0.003810     -8.16032     -8.16214 
    0.004302     -8.22194     -8.22389 
    0.004823     -8.12833     -8.13016 
    0.005373     -8.11521     -8.11725 
    0.005954     -8.03750     -8.03980 
    0.006564     -8.05335     -8.05562 
    0.007204     -8.16692     -8.16927 
    0.007874     -8.11947     -8.12163 
    0.008573     -7.96727     -7.96931 
    0.009303     -7.98626     -7.98895 
    0.010062     -8.24172     -8.24537 
    0.010851     -8.17613     -8.18022 
    0.011669     -8.24719     -8.25139 
    0.012518     -8.39917     -8.40413 
    0.013396     -8.46402     -8.47064 
    0.014304     -8.51417     -8.52188 
    0.015242     -8.60582     -8.61517 
    0.016209     -8.71063     -8.72257 
    0.017206     -8.66946     -8.68241 
    0.018233     -8.69115     -8.70467 
    0.019290     -8.83361     -8.85209 
    0.020377     -8.96304     -8.98822 
    0.021493     -9.04727     -9.07653 
    0.022639     -8.95475     -9.01324 
    0.023815     -8.97447     -9.02770 
    0.025021     -8.98937     -9.04092 
    0.026256     -9.01830     -9.07692 
    0.027521     -9.06810     -9.12480 
    0.028816     -9.00806     -9.06035 
    0.030141     -9.02590     -9.08330 
    0.031495     -9.01205     -9.07212 
    0.032880     -9.00223     -9.05947 
    0.034294     -8.94114     -8.99393 
    0.035737     -8.87363     -8.91976 
    0.037211     -8.83397     -8.87747 
    0.038714     -8.80817     -8.85118 
    0.040247     -8.84182     -8.88715 
    0.041810     -8.87414     -8.92623 
    0.043403     -8.85167     -8.90881 
    0.045025     -8.83251     -8.89236 
    0.046677     -8.84986     -8.91211 
    0.048359     -8.85090     -8.91449 
    0.050071     -8.89425     -8.96107 
    0.051812     -8.92109     -8.99948 
    0.053584     -8.98397     -9.07803 
    0.055385     -9.04126     -9.14090 
    0.057215     -9.03637     -9.14019 
    0.059076     -9.05273     -9.17704 
    0.060966     -9.09600     -9.24582 
    0.062886     -9.15676     -9.33388 
    0.064836     -9.15819     -9.36013 
    0.066816     -9.17848     -9.38963 
    0.068825     -9.19661     -9.43889 
    0.070864     -9.19690     -9.46462 
    0.072933     -9.21398     -9.49265 
    0.075032     -9.24758     -9.55131 
    0.077160     -9.26045     -9.60426 
    0.079319     -9.27628     -9.69351 
    0.081507     -9.27693     -9.75912 
    0.083724     -9.29176     -9.81934 
    0.085972     -9.29829     -9.89923 
    0.088249     -9.31099    -10.00879 
    0.090556     -9.31446    -10.06457 
    0.092893     -9.30142    -10.17664 
    0.095260     -9.32047    -10.26831 
    0.097656     -9.31126    -10.26732 
    0.100082     -9.31658    -10.19854 
    0.102538     -9.30641    -10.23276 
    0.105024     -9.30648    -10.51831 
    0.107539     -9.29811    -10.76427 
    0.110085     -9.31094    -10.84040 
    0.112660     -9.30310    -10.78324 
    0.115264     -9.29250    -11.07893 
    0.117899     -9.28229    -99.00000 
    0.120563     -9.27489    -99.00000 
    0.123257     -9.27047    -99.00000 
    0.125981     -9.27019    -99.00000 
    0.128735     -9.27202    -99.00000 
    0.131518     -9.26987    -99.00000 
    0.134331     -9.26988    -99.00000 
    0.137174     -9.54410    -99.00000 
 
