# RELION postprocess; version 5.0-beta-2-commit-a0b145
# --mask mask_fsc.mrc --i Reconstruct/job068/half1.mrc --o PostProcess/job069/postprocess --angpix -1 --pipeline_control PostProcess/job069/ 

# version 50001

data_general

_rlnFinalResolution                               3.323077
_rlnBfactorUsedForSharpening                      0.000000
_rlnUnfilteredMapHalf1                        Reconstruct/job068/half1.mrc
_rlnUnfilteredMapHalf2                        Reconstruct/job068/half2.mrc
_rlnPostprocessedMap                          PostProcess/job069/postprocess.mrc
_rlnParticleBoxFractionSolventMask               10.682012
_rlnMaskName                                  mask_fsc.mrc
_rlnRandomiseFrom                                 7.005406
_rlnPostprocessedMapMasked                    PostProcess/job069/postprocess_masked.mrc
 

# version 50001

data_fsc

loop_ 
_rlnSpectralIndex #1 
_rlnResolution #2 
_rlnAngstromResolution #3 
_rlnFourierShellCorrelationCorrected #4 
_rlnFourierShellCorrelationParticleMaskFraction #5 
_rlnFourierShellCorrelationUnmaskedMaps #6 
_rlnFourierShellCorrelationMaskedMaps #7 
_rlnCorrectedFourierShellCorrelationPhaseRandomizedMaskedMaps #8 
           0     0.001001   999.000000     1.000000     1.000000     1.000000     1.000000     1.000000 
           1     0.003858   259.200012     0.999174     0.999957     0.999545     0.999174     0.998990 
           2     0.007716   129.600006     0.998284     0.999861     0.998518     0.998284     0.998107 
           3     0.011574    86.400004     0.999494     0.999988     0.999876     0.999494     0.999566 
           4     0.015432    64.800003     0.999835     0.999980     0.999789     0.999835     0.999845 
           5     0.019290    51.840002     0.999880     0.999967     0.999653     0.999880     0.999889 
           6     0.023148    43.200002     0.999817     0.999938     0.999342     0.999817     0.999820 
           7     0.027006    37.028573     0.999569     0.999867     0.998577     0.999569     0.999567 
           8     0.030864    32.400002     0.998983     0.999855     0.998451     0.998983     0.999041 
           9     0.034722    28.800001     0.998535     0.999771     0.997561     0.998535     0.998601 
          10     0.038580    25.920001     0.997854     0.999678     0.996572     0.997854     0.997841 
          11     0.042438    23.563637     0.997562     0.999518     0.994879     0.997562     0.997476 
          12     0.046296    21.600001     0.997335     0.999211     0.991640     0.997335     0.997269 
          13     0.050154    19.938462     0.996037     0.998586     0.985105     0.996037     0.995926 
          14     0.054012    18.514287     0.994380     0.999104     0.990515     0.994380     0.994313 
          15     0.057870    17.280001     0.994259     0.998657     0.985841     0.994259     0.994112 
          16     0.061728    16.200001     0.992377     0.998153     0.980613     0.992377     0.992523 
          17     0.065586    15.247060     0.991720     0.998584     0.985079     0.991720     0.992308 
          18     0.069444    14.400001     0.992344     0.998654     0.985809     0.992344     0.992655 
          19     0.073302    13.642106     0.991326     0.998313     0.982271     0.991326     0.991347 
          20     0.077160    12.960001     0.990072     0.997775     0.976731     0.990072     0.989951 
          21     0.081019    12.342858     0.990390     0.997548     0.974416     0.990390     0.990232 
          22     0.084877    11.781819     0.990443     0.997391     0.972816     0.990443     0.990317 
          23     0.088735    11.269566     0.990969     0.997638     0.975333     0.990969     0.991233 
          24     0.092593    10.800001     0.991356     0.997999     0.979029     0.991356     0.991776 
          25     0.096451    10.368000     0.989031     0.997733     0.976301     0.989031     0.989287 
          26     0.100309     9.969231     0.985429     0.995251     0.951498     0.985429     0.985401 
          27     0.104167     9.600000     0.983543     0.996397     0.962809     0.983543     0.983347 
          28     0.108025     9.257143     0.982371     0.996061     0.959471     0.982371     0.981925 
          29     0.111883     8.937931     0.979854     0.993886     0.938344     0.979854     0.978823 
          30     0.115741     8.640000     0.973312     0.991323     0.914499     0.973312     0.973081 
          31     0.119599     8.361291     0.969415     0.991105     0.912514     0.969415     0.971270 
          32     0.123457     8.100000     0.963532     0.989965     0.902300     0.963532     0.965116 
          33     0.127315     7.854546     0.952689     0.983778     0.850238     0.952689     0.952203 
          34     0.131173     7.623530     0.949338     0.985341     0.862878     0.949338     0.948960 
          35     0.135031     7.405715     0.946760     0.985372     0.863130     0.946760     0.946744 
          36     0.138889     7.200000     0.925260     0.978568     0.810405     0.925260     0.917511 
          37     0.142747     7.005406     0.897563     0.961942     0.702926     0.897563     0.828816 
          38     0.146605     6.821053     0.888957     0.958376     0.683091     0.888957     0.638688 
          39     0.150463     6.646154     0.807875     0.965448     0.723437     0.883715     0.394742 
          40     0.154321     6.480000     0.829993     0.961238     0.698933     0.883140     0.312617 
          41     0.158179     6.321952     0.830534     0.960264     0.693468     0.869295     0.228727 
          42     0.162037     6.171429     0.805572     0.951293     0.646443     0.845975     0.207804 
          43     0.165895     6.027907     0.813288     0.944522     0.614468     0.849267     0.192702 
          44     0.169753     5.890909     0.820081     0.946038     0.621386     0.841620     0.119716 
          45     0.173611     5.760000     0.807674     0.939364     0.591884     0.828145     0.106438 
          46     0.177469     5.634783     0.807075     0.938145     0.586752     0.821827     0.076466 
          47     0.181327     5.514894     0.815445     0.935714     0.576740     0.823864     0.045620 
          48     0.185185     5.400000     0.828436     0.941134     0.599469     0.836986     0.049838 
          49     0.189043     5.289796     0.847111     0.948413     0.632501     0.852183     0.033175 
          50     0.192901     5.184000     0.851972     0.948651     0.633635     0.856695     0.031905 
          51     0.196759     5.082353     0.849429     0.951772     0.648814     0.852986     0.023620 
          52     0.200617     4.984616     0.839350     0.944847     0.615938     0.841300     0.012138 
          53     0.204475     4.890566     0.817887     0.936219     0.578794     0.820283     0.013157 
          54     0.208333     4.800000     0.805244     0.934764     0.572907     0.809613     0.022434 
          55     0.212191     4.712727     0.803568     0.932888     0.565461     0.810155     0.033536 
          56     0.216049     4.628572     0.801953     0.926585     0.541608     0.807716     0.029100 
          57     0.219907     4.547369     0.793929     0.922023     0.525375     0.796895     0.014394 
          58     0.223765     4.468966     0.782105     0.913140     0.496006     0.786655     0.020884 
          59     0.227623     4.393221     0.758622     0.901487     0.461402     0.763230     0.019089 
          60     0.231481     4.320000     0.728688     0.885214     0.419263     0.730119     0.005275 
          61     0.235339     4.249181     0.709269     0.857536     0.360409     0.709367 3.353245e-04 
          62     0.239198     4.180645     0.691013     0.852658     0.351384     0.690332     -0.00220 
          63     0.243056     4.114286     0.652186     0.849086     0.344996     0.652312 3.638612e-04 
          64     0.246914     4.050000     0.603301     0.803431     0.276742     0.605203     0.004795 
          65     0.250772     3.987692     0.555857     0.761287     0.229911     0.563527     0.017267 
          66     0.254630     3.927273     0.517233     0.738128     0.208779     0.527452     0.021168 
          67     0.258488     3.868657     0.506928     0.706996     0.184263     0.513519     0.013368 
          68     0.262346     3.811765     0.459278     0.684325     0.168704     0.472974     0.025329 
          69     0.266204     3.756522     0.432531     0.660352     0.153983     0.443189     0.018781 
          70     0.270062     3.702857     0.427753     0.651432     0.148904     0.431860     0.007178 
          71     0.273920     3.650704     0.406023     0.558866     0.106025     0.410606     0.007716 
          72     0.277778     3.600000     0.365984     0.534505     0.097060     0.373484     0.011830 
          73     0.281636     3.550685     0.319310     0.511204     0.089176     0.325291     0.008786 
          74     0.285494     3.502703     0.285095     0.462009     0.074412     0.281818     -0.00458 
          75     0.289352     3.456000     0.263743     0.444692     0.069739     0.260930     -0.00382 
          76     0.293210     3.410526     0.209637     0.290724     0.036954     0.213338     0.004683 
          77     0.297068     3.366234     0.145597     0.268267     0.033182     0.161163     0.018219 
          78     0.300926     3.323077     0.153489     0.208498     0.024067     0.168121     0.017286 
          79     0.304784     3.281013     0.139721     0.199805     0.022841     0.151423     0.013603 
          80     0.308642     3.240000     0.099283     0.067650     0.006747     0.109461     0.011300 
          81     0.312500     3.200000     0.087929     0.044925     0.004384     0.092461     0.004969 
          82     0.316358     3.160976     0.094159     0.084914     0.008612     0.087970     -0.00683 
          83     0.320216     3.122892     0.064191     0.105558     0.010927     0.052499     -0.01249 
          84     0.324074     3.085714     0.031714     -0.06449     -0.00570     0.022664     -0.00935 
          85     0.327932     3.049412     0.023350     0.062430     0.006195     0.018230     -0.00524 
          86     0.331790     3.013954     0.028512     0.049559     0.004858     0.020388     -0.00836 
          87     0.335648     2.979310     0.027370     -0.17147     -0.01389     0.017020     -0.01064 
          88     0.339506     2.945455     0.029000     0.075646     0.007603     0.026263     -0.00282 
          89     0.343364     2.912360     -0.00915     0.106946     0.011086     -0.00148     0.007598 
          90     0.347222     2.880000     -0.05027     -0.05575     -0.00497     -0.03835     0.011349 
          91     0.351080     2.848352     -0.05901     -0.17834     -0.01437     -0.04131     0.016715 
          92     0.354938     2.817391     -0.03372     -0.14385     -0.01191     -0.02046     0.012828 
          93     0.358796     2.787097     -0.02214     -0.08878     -0.00769     -0.02036     0.001745 
          94     0.362654     2.757447     -0.01519     -0.26341     -0.01991     -0.02159     -0.00630 
          95     0.366512     2.728421     -0.01438     0.073879     0.007413     -0.01667     -0.00226 
          96     0.370370     2.700000     -0.00554     0.110612     0.011509     -0.00839     -0.00283 
 

# version 50001

data_guinier

loop_ 
_rlnResolutionSquared #1 
_rlnLogAmplitudesOriginal #2 
_rlnLogAmplitudesWeighted #3 
    0.000000    -25.98629    -25.98629 
1.488435e-05     -4.92264     -4.92285 
5.953741e-05     -6.02575     -6.02618 
1.339592e-04     -6.13894     -6.13906 
2.381496e-04     -6.09280     -6.09284 
3.721088e-04     -6.50398     -6.50401 
5.358367e-04     -6.94102     -6.94106 
7.293333e-04     -7.23540     -7.23551 
9.525986e-04     -7.34192     -7.34217 
    0.001206     -7.55969     -7.56006 
    0.001488     -7.59655     -7.59709 
    0.001801     -7.82210     -7.82271 
    0.002143     -8.12616     -8.12683 
    0.002515     -8.27478     -8.27577 
    0.002917     -8.05515     -8.05656 
    0.003349     -8.12234     -8.12378 
    0.003810     -8.20976     -8.21168 
    0.004302     -8.27044     -8.27252 
    0.004823     -8.17561     -8.17753 
    0.005373     -8.16337     -8.16555 
    0.005954     -8.08682     -8.08932 
    0.006564     -8.10197     -8.10439 
    0.007204     -8.21449     -8.21689 
    0.007874     -8.16568     -8.16795 
    0.008573     -8.01353     -8.01571 
    0.009303     -8.03324     -8.03600 
    0.010062     -8.28536     -8.28904 
    0.010851     -8.22129     -8.22546 
    0.011669     -8.29510     -8.29957 
    0.012518     -8.44654     -8.45165 
    0.013396     -8.51054     -8.51735 
    0.014304     -8.55834     -8.56616 
    0.015242     -8.64982     -8.65919 
    0.016209     -8.75004     -8.76230 
    0.017206     -8.71248     -8.72564 
    0.018233     -8.73561     -8.74948 
    0.019290     -8.88001     -8.89980 
    0.020377     -9.01452     -9.04227 
    0.021493     -9.09389     -9.12418 
    0.022639     -8.99946     -9.05564 
    0.023815     -9.01410     -9.06285 
    0.025021     -9.02805     -9.07662 
    0.026256     -9.05949     -9.11646 
    0.027521     -9.10653     -9.16086 
    0.028816     -9.04807     -9.10011 
    0.030141     -9.06612     -9.12236 
    0.031495     -9.04672     -9.10317 
    0.032880     -9.03626     -9.08986 
    0.034294     -8.97324     -9.02251 
    0.035737     -8.91001     -8.95321 
    0.037211     -8.86838     -8.91003 
    0.038714     -8.84206     -8.88452 
    0.040247     -8.87497     -8.92067 
    0.041810     -8.89754     -8.95032 
    0.043403     -8.88314     -8.94021 
    0.045025     -8.86123     -8.91888 
    0.046677     -8.87519     -8.93341 
    0.048359     -8.87229     -8.93330 
    0.050071     -8.91224     -8.97745 
    0.051812     -8.95109     -9.02491 
    0.053584     -9.00345     -9.08881 
    0.055385     -9.06784     -9.16106 
    0.057215     -9.06523     -9.16612 
    0.059076     -9.08360     -9.20179 
    0.060966     -9.13564     -9.27777 
    0.062886     -9.18191     -9.34997 
    0.064836     -9.18688     -9.37838 
    0.066816     -9.21759     -9.41575 
    0.068825     -9.23127     -9.46272 
    0.070864     -9.22824     -9.48044 
    0.072933     -9.23061     -9.48669 
    0.075032     -9.27379     -9.54827 
    0.077160     -9.28060     -9.59255 
    0.079319     -9.29588     -9.65866 
    0.081507     -9.30080     -9.70711 
    0.083724     -9.32095     -9.75781 
    0.085972     -9.34040     -9.87018 
    0.088249     -9.34101    -10.02586 
    0.090556     -9.34962    -10.01150 
    0.092893     -9.34788    -10.05075 
    0.095260     -9.36445    -10.22009 
    0.097656     -9.36005    -10.27123 
    0.100082     -9.36015    -10.23996 
    0.102538     -9.35362    -10.41111 
    0.105024     -9.35631    -10.75085 
    0.107539     -9.35204    -10.89558 
    0.110085     -9.35991    -10.80610 
    0.112660     -9.36381    -10.82990 
    0.115264     -9.34494    -10.78289 
    0.117899     -9.32978    -99.00000 
    0.120563     -9.33400    -99.00000 
    0.123257     -9.33160    -99.00000 
    0.125981     -9.33350    -99.00000 
    0.128735     -9.32347    -99.00000 
    0.131518     -9.32888    -99.00000 
    0.134331     -9.31389    -99.00000 
    0.137174     -9.58972    -99.00000 
 
